,wavenumbers,absorbance
0,452.797478329393,0.03289473684210531
1,452.797478329393,0.03947368421052633
2,455.5949566587865,0.03947368421052633
3,458.3924349881795,0.03947368421052633
4,461.189913317573,0.03947368421052633
5,461.189913317573,0.03289473684210531
6,463.987391646966,0.03289473684210531
7,463.987391646966,0.02631578947368418
8,466.78486997635946,0.02631578947368418
9,469.5823483057525,0.02631578947368418
10,472.37982663514595,0.02631578947368418
11,475.17730496453896,0.02631578947368418
12,475.17730496453896,0.03289473684210531
13,477.97478329393243,0.03289473684210531
14,480.77226162332545,0.02631578947368418
15,480.77226162332545,0.03289473684210531
16,483.56973995271846,0.02631578947368418
17,486.36721828211193,0.02631578947368418
18,489.16469661150495,0.02631578947368418
19,491.9621749408984,0.02631578947368418
20,494.75965327029144,0.03289473684210531
21,494.75965327029144,0.02631578947368418
22,497.5571315996849,0.03289473684210531
23,500.3546099290779,0.03289473684210531
24,503.1520882584714,0.03289473684210531
25,505.9495665878644,0.03289473684210531
26,508.7470449172579,0.03289473684210531
27,511.5445232466509,0.03289473684210531
28,514.3420015760439,0.03289473684210531
29,517.1394799054374,0.03289473684210531
30,517.1394799054374,0.02631578947368418
31,519.9369582348304,0.02631578947368418
32,522.7344365642239,0.02631578947368418
33,525.5319148936169,0.02631578947368418
34,528.3293932230104,0.02631578947368418
35,531.1268715524034,0.02631578947368418
36,533.9243498817968,0.02631578947368418
37,536.7218282111899,0.02631578947368418
38,539.5193065405833,0.02631578947368418
39,542.3167848699763,0.02631578947368418
40,545.1142631993694,0.02631578947368418
41,547.9117415287628,0.02631578947368418
42,550.7092198581558,0.02631578947368418
43,550.7092198581558,0.019736842105263164
44,553.5066981875493,0.019736842105263164
45,556.3041765169423,0.019736842105263164
46,559.1016548463358,0.019736842105263164
47,561.8991331757288,0.019736842105263164
48,564.6966115051223,0.019736842105263164
49,567.4940898345153,0.019736842105263164
50,570.2915681639088,0.019736842105263164
51,573.0890464933018,0.02631578947368418
52,573.0890464933018,0.019736842105263164
53,575.8865248226948,0.02631578947368418
54,578.6840031520883,0.02631578947368418
55,581.4814814814813,0.02631578947368418
56,584.2789598108748,0.02631578947368418
57,587.0764381402678,0.019736842105263164
58,587.0764381402678,0.02631578947368418
59,589.8739164696613,0.019736842105263164
60,592.6713947990543,0.019736842105263164
61,595.4688731284477,0.019736842105263164
62,598.2663514578408,0.019736842105263164
63,601.0638297872342,0.019736842105263164
64,603.8613081166272,0.019736842105263164
65,606.6587864460207,0.019736842105263164
66,609.4562647754137,0.019736842105263164
67,612.2537431048067,0.013157894736842146
68,612.2537431048067,0.019736842105263164
69,615.0512214342002,0.019736842105263164
70,617.8486997635932,0.019736842105263164
71,620.6461780929867,0.019736842105263164
72,623.4436564223797,0.019736842105263164
73,626.2411347517732,0.019736842105263164
74,629.0386130811662,0.019736842105263164
75,631.8360914105597,0.019736842105263164
76,634.6335697399527,0.019736842105263164
77,637.4310480693462,0.019736842105263164
78,640.2285263987392,0.019736842105263164
79,643.0260047281322,0.019736842105263164
80,645.8234830575257,0.019736842105263164
81,648.6209613869187,0.019736842105263164
82,651.4184397163122,0.019736842105263164
83,654.2159180457052,0.019736842105263164
84,657.0133963750986,0.019736842105263164
85,659.8108747044917,0.019736842105263164
86,659.8108747044917,0.02631578947368418
87,662.6083530338851,0.02631578947368418
88,665.4058313632781,0.02631578947368418
89,668.2033096926716,0.02631578947368418
90,671.0007880220646,0.02631578947368418
91,673.7982663514576,0.02631578947368418
92,676.5957446808511,0.02631578947368418
93,679.3932230102441,0.02631578947368418
94,682.1907013396376,0.02631578947368418
95,684.9881796690306,0.02631578947368418
96,687.7856579984241,0.02631578947368418
97,687.7856579984241,0.03289473684210531
98,690.5831363278171,0.03289473684210531
99,693.3806146572106,0.03289473684210531
100,696.1780929866036,0.03289473684210531
101,698.9755713159971,0.03289473684210531
102,701.7730496453901,0.03289473684210531
103,704.5705279747831,0.03289473684210531
104,707.3680063041766,0.03289473684210531
105,707.3680063041766,0.03947368421052633
106,710.1654846335696,0.03947368421052633
107,712.962962962963,0.03947368421052633
108,715.7604412923561,0.03289473684210531
109,715.7604412923561,0.03947368421052633
110,718.5579196217495,0.03947368421052633
111,718.5579196217495,0.03289473684210531
112,721.3553979511425,0.03947368421052633
113,724.152876280536,0.03947368421052633
114,726.950354609929,0.03947368421052633
115,729.7478329393225,0.03947368421052633
116,732.5453112687155,0.03947368421052633
117,735.3427895981085,0.03947368421052633
118,738.140267927502,0.03947368421052633
119,740.937746256895,0.03947368421052633
120,743.7352245862885,0.046052631578947345
121,743.7352245862885,0.03947368421052633
122,746.5327029156815,0.046052631578947345
123,749.330181245075,0.046052631578947345
124,752.127659574468,0.046052631578947345
125,754.9251379038615,0.046052631578947345
126,757.7226162332545,0.046052631578947345
127,760.520094562648,0.046052631578947345
128,763.317572892041,0.046052631578947345
129,763.317572892041,0.03947368421052633
130,766.115051221434,0.03947368421052633
131,768.9125295508275,0.03947368421052633
132,771.7100078802205,0.03947368421052633
133,774.507486209614,0.03947368421052633
134,774.507486209614,0.03289473684210531
135,777.304964539007,0.03947368421052633
136,780.1024428684004,0.03947368421052633
137,782.8999211977934,0.03947368421052633
138,785.6973995271869,0.03947368421052633
139,788.4948778565799,0.03947368421052633
140,791.2923561859734,0.03947368421052633
141,794.0898345153664,0.03947368421052633
142,796.8873128447594,0.03947368421052633
143,799.6847911741529,0.03947368421052633
144,802.4822695035459,0.03947368421052633
145,805.2797478329394,0.046052631578947345
146,805.2797478329394,0.03947368421052633
147,808.0772261623324,0.046052631578947345
148,810.8747044917259,0.046052631578947345
149,813.6721828211189,0.046052631578947345
150,816.4696611505124,0.046052631578947345
151,819.2671394799054,0.046052631578947345
152,822.0646178092989,0.046052631578947345
153,824.8620961386919,0.046052631578947345
154,827.6595744680849,0.046052631578947345
155,830.4570527974784,0.052631578947368474
156,830.4570527974784,0.046052631578947345
157,833.2545311268714,0.052631578947368474
158,836.0520094562648,0.052631578947368474
159,838.8494877856579,0.052631578947368474
160,838.8494877856579,0.05921052631578949
161,841.6469661150513,0.05921052631578949
162,844.4444444444443,0.06578947368421051
163,844.4444444444443,0.05921052631578949
164,847.2419227738378,0.06578947368421051
165,850.0394011032308,0.06578947368421051
166,852.8368794326243,0.06578947368421051
167,852.8368794326243,0.07236842105263153
168,855.6343577620173,0.07236842105263153
169,858.4318360914103,0.07236842105263153
170,858.4318360914103,0.07894736842105265
171,861.2293144208038,0.07894736842105265
172,864.0267927501968,0.07894736842105265
173,866.8242710795903,0.07894736842105265
174,869.6217494089833,0.07894736842105265
175,872.4192277383768,0.07236842105263153
176,872.4192277383768,0.07894736842105265
177,875.2167060677698,0.07236842105263153
178,878.0141843971633,0.07236842105263153
179,880.8116627265563,0.07236842105263153
180,883.6091410559497,0.07236842105263153
181,886.4066193853428,0.06578947368421051
182,886.4066193853428,0.07236842105263153
183,889.2040977147362,0.06578947368421051
184,892.0015760441293,0.05921052631578949
185,892.0015760441293,0.06578947368421051
186,894.7990543735223,0.05921052631578949
187,897.5965327029157,0.05921052631578949
188,900.3940110323088,0.06578947368421051
189,900.3940110323088,0.05921052631578949
190,903.1914893617022,0.06578947368421051
191,905.9889676910952,0.06578947368421051
192,905.9889676910952,0.07236842105263153
193,908.7864460204887,0.07236842105263153
194,908.7864460204887,0.07894736842105265
195,911.5839243498817,0.07894736842105265
196,914.3814026792752,0.07894736842105265
197,917.1788810086682,0.07894736842105265
198,917.1788810086682,0.08552631578947367
199,919.9763593380617,0.08552631578947367
200,922.7738376674547,0.08552631578947367
201,925.5713159968477,0.08552631578947367
202,928.3687943262412,0.08552631578947367
203,931.1662726556342,0.08552631578947367
204,931.1662726556342,0.09210526315789469
205,933.9637509850277,0.09210526315789469
206,936.7612293144207,0.09210526315789469
207,936.7612293144207,0.09868421052631582
208,939.5587076438142,0.09868421052631582
209,942.3561859732072,0.09868421052631582
210,945.1536643026006,0.10526315789473684
211,945.1536643026006,0.09868421052631582
212,947.9511426319937,0.10526315789473684
213,950.7486209613871,0.10526315789473684
214,953.5460992907801,0.10526315789473684
215,953.5460992907801,0.11184210526315785
216,956.3435776201732,0.11184210526315785
217,959.1410559495666,0.10526315789473684
218,959.1410559495666,0.11184210526315785
219,961.9385342789597,0.10526315789473684
220,964.7360126083531,0.10526315789473684
221,964.7360126083531,0.09868421052631582
222,967.5334909377461,0.09868421052631582
223,967.5334909377461,0.09210526315789469
224,970.3309692671396,0.09210526315789469
225,973.1284475965326,0.08552631578947367
226,973.1284475965326,0.07894736842105265
227,973.1284475965326,0.09210526315789469
228,975.9259259259261,0.07894736842105265
229,978.7234042553191,0.07236842105263153
230,978.7234042553191,0.07894736842105265
231,981.5208825847126,0.07236842105263153
232,984.3183609141056,0.07236842105263153
233,987.1158392434986,0.07236842105263153
234,987.1158392434986,0.07894736842105265
235,989.9133175728921,0.07894736842105265
236,992.7107959022851,0.07894736842105265
237,995.5082742316786,0.08552631578947367
238,995.5082742316786,0.07894736842105265
239,998.3057525610716,0.08552631578947367
240,1001.103230890465,0.08552631578947367
241,1001.103230890465,0.09210526315789469
242,1003.9007092198581,0.09210526315789469
243,1006.6981875492515,0.09868421052631582
244,1006.6981875492515,0.09210526315789469
245,1009.4956658786446,0.10526315789473684
246,1009.4956658786446,0.09868421052631582
247,1012.293144208038,0.10526315789473684
248,1012.293144208038,0.11184210526315785
249,1015.090622537431,0.11842105263157898
250,1015.090622537431,0.11184210526315785
251,1017.8881008668241,0.11842105263157898
252,1017.8881008668241,0.125
253,1017.8881008668241,0.13157894736842102
254,1020.6855791962175,0.13157894736842102
255,1020.6855791962175,0.13815789473684215
256,1023.4830575256105,0.1578947368421053
257,1023.4830575256105,0.15131578947368418
258,1023.4830575256105,0.13815789473684215
259,1023.4830575256105,0.14473684210526316
260,1026.280535855004,0.16447368421052633
261,1026.280535855004,0.1578947368421053
262,1026.280535855004,0.17105263157894735
263,1029.078014184397,0.17105263157894735
264,1029.078014184397,0.17763157894736847
265,1029.078014184397,0.1842105263157895
266,1031.8754925137905,0.1842105263157895
267,1031.8754925137905,0.1907894736842105
268,1034.6729708431835,0.1907894736842105
269,1034.6729708431835,0.20394736842105265
270,1034.6729708431835,0.19736842105263153
271,1037.470449172577,0.20394736842105265
272,1040.26792750197,0.21052631578947367
273,1040.26792750197,0.20394736842105265
274,1043.0654058313635,0.21052631578947367
275,1045.8628841607565,0.21052631578947367
276,1048.6603624901495,0.21052631578947367
277,1048.6603624901495,0.2171052631578947
278,1051.457840819543,0.2171052631578947
279,1051.457840819543,0.22368421052631582
280,1054.255319148936,0.22368421052631582
281,1054.255319148936,0.23026315789473684
282,1057.0527974783295,0.23026315789473684
283,1057.0527974783295,0.23684210526315785
284,1059.8502758077225,0.25
285,1059.8502758077225,0.23684210526315785
286,1059.8502758077225,0.24342105263157898
287,1062.647754137116,0.25
288,1065.445232466509,0.25
289,1068.2427107959024,0.25
290,1068.2427107959024,0.256578947368421
291,1071.0401891252955,0.26315789473684215
292,1071.0401891252955,0.256578947368421
293,1071.0401891252955,0.26973684210526316
294,1073.837667454689,0.2763157894736842
295,1073.837667454689,0.26973684210526316
296,1073.837667454689,0.2828947368421053
297,1076.635145784082,0.2828947368421053
298,1079.432624113475,0.26973684210526316
299,1079.432624113475,0.2828947368421053
300,1079.432624113475,0.2763157894736842
301,1082.2301024428684,0.26315789473684215
302,1082.2301024428684,0.26973684210526316
303,1082.2301024428684,0.256578947368421
304,1085.0275807722614,0.256578947368421
305,1085.0275807722614,0.23684210526315785
306,1085.0275807722614,0.23026315789473684
307,1085.0275807722614,0.24342105263157898
308,1085.0275807722614,0.25
309,1087.825059101655,0.2171052631578947
310,1087.825059101655,0.22368421052631582
311,1087.825059101655,0.23026315789473684
312,1090.622537431048,0.19736842105263153
313,1090.622537431048,0.2171052631578947
314,1090.622537431048,0.21052631578947367
315,1090.622537431048,0.20394736842105265
316,1093.4200157604414,0.19736842105263153
317,1093.4200157604414,0.1907894736842105
318,1096.2174940898344,0.1907894736842105
319,1099.014972419228,0.1907894736842105
320,1101.812450748621,0.1907894736842105
321,1101.812450748621,0.19736842105263153
322,1104.6099290780144,0.2171052631578947
323,1104.6099290780144,0.20394736842105265
324,1104.6099290780144,0.19736842105263153
325,1104.6099290780144,0.21052631578947367
326,1107.4074074074074,0.22368421052631582
327,1107.4074074074074,0.23684210526315785
328,1107.4074074074074,0.23026315789473684
329,1107.4074074074074,0.2171052631578947
330,1110.2048857368004,0.23684210526315785
331,1110.2048857368004,0.3026315789473685
332,1110.2048857368004,0.29605263157894735
333,1110.2048857368004,0.26315789473684215
334,1110.2048857368004,0.24342105263157898
335,1110.2048857368004,0.2763157894736842
336,1110.2048857368004,0.2828947368421053
337,1110.2048857368004,0.256578947368421
338,1110.2048857368004,0.26973684210526316
339,1110.2048857368004,0.25
340,1110.2048857368004,0.2894736842105263
341,1113.0023640661939,0.3223684210526315
342,1113.0023640661939,0.3355263157894737
343,1113.0023640661939,0.3026315789473685
344,1113.0023640661939,0.3092105263157895
345,1113.0023640661939,0.3421052631578947
346,1113.0023640661939,0.32894736842105265
347,1113.0023640661939,0.3157894736842105
348,1115.799842395587,0.3486842105263158
349,1115.799842395587,0.3421052631578947
350,1115.799842395587,0.4276315789473685
351,1115.799842395587,0.39473684210526316
352,1115.799842395587,0.35526315789473684
353,1115.799842395587,0.4078947368421053
354,1115.799842395587,0.4013157894736842
355,1115.799842395587,0.4144736842105263
356,1115.799842395587,0.36184210526315785
357,1115.799842395587,0.42105263157894735
358,1115.799842395587,0.38815789473684215
359,1115.799842395587,0.381578947368421
360,1115.799842395587,0.368421052631579
361,1115.799842395587,0.375
362,1118.5973207249804,0.4736842105263158
363,1118.5973207249804,0.4605263157894737
364,1118.5973207249804,0.4671052631578947
365,1118.5973207249804,0.4342105263157895
366,1118.5973207249804,0.4407894736842105
367,1118.5973207249804,0.4276315789473685
368,1118.5973207249804,0.4473684210526315
369,1118.5973207249804,0.45394736842105265
370,1121.3947990543734,0.5
371,1121.3947990543734,0.5328947368421053
372,1121.3947990543734,0.4736842105263158
373,1121.3947990543734,0.48684210526315785
374,1121.3947990543734,0.48026315789473684
375,1121.3947990543734,0.5263157894736843
376,1121.3947990543734,0.5394736842105263
377,1121.3947990543734,0.513157894736842
378,1121.3947990543734,0.5197368421052632
379,1121.3947990543734,0.493421052631579
380,1121.3947990543734,0.506578947368421
381,1124.1922773837669,0.5592105263157895
382,1124.1922773837669,0.5657894736842105
383,1124.1922773837669,0.5460526315789473
384,1124.1922773837669,0.5526315789473684
385,1124.1922773837669,0.5394736842105263
386,1126.9897557131599,0.5657894736842105
387,1126.9897557131599,0.5789473684210527
388,1126.9897557131599,0.5723684210526316
389,1129.7872340425533,0.5789473684210527
390,1129.7872340425533,0.5723684210526316
391,1132.5847123719464,0.5723684210526316
392,1132.5847123719464,0.5592105263157895
393,1132.5847123719464,0.5657894736842105
394,1135.3821907013398,0.5526315789473684
395,1135.3821907013398,0.5394736842105263
396,1135.3821907013398,0.5197368421052632
397,1135.3821907013398,0.5263157894736843
398,1135.3821907013398,0.5460526315789473
399,1135.3821907013398,0.5592105263157895
400,1135.3821907013398,0.5328947368421053
401,1138.1796690307328,0.5
402,1138.1796690307328,0.513157894736842
403,1138.1796690307328,0.5197368421052632
404,1138.1796690307328,0.493421052631579
405,1138.1796690307328,0.506578947368421
406,1140.9771473601263,0.48026315789473684
407,1140.9771473601263,0.493421052631579
408,1140.9771473601263,0.45394736842105265
409,1140.9771473601263,0.4473684210526315
410,1140.9771473601263,0.4671052631578947
411,1140.9771473601263,0.4605263157894737
412,1140.9771473601263,0.4736842105263158
413,1140.9771473601263,0.4407894736842105
414,1140.9771473601263,0.48684210526315785
415,1143.7746256895193,0.4407894736842105
416,1143.7746256895193,0.4342105263157895
417,1143.7746256895193,0.4144736842105263
418,1143.7746256895193,0.42105263157894735
419,1143.7746256895193,0.4276315789473685
420,1146.5721040189123,0.38815789473684215
421,1146.5721040189123,0.4078947368421053
422,1146.5721040189123,0.39473684210526316
423,1146.5721040189123,0.381578947368421
424,1146.5721040189123,0.368421052631579
425,1146.5721040189123,0.36184210526315785
426,1146.5721040189123,0.4013157894736842
427,1146.5721040189123,0.375
428,1146.5721040189123,0.4144736842105263
429,1149.3695823483058,0.36184210526315785
430,1149.3695823483058,0.3486842105263158
431,1149.3695823483058,0.35526315789473684
432,1152.1670606776988,0.3421052631578947
433,1152.1670606776988,0.3355263157894737
434,1152.1670606776988,0.3486842105263158
435,1154.9645390070923,0.3421052631578947
436,1154.9645390070923,0.3355263157894737
437,1157.7620173364853,0.3486842105263158
438,1157.7620173364853,0.36184210526315785
439,1157.7620173364853,0.35526315789473684
440,1157.7620173364853,0.3421052631578947
441,1160.5594956658788,0.39473684210526316
442,1160.5594956658788,0.38815789473684215
443,1160.5594956658788,0.375
444,1160.5594956658788,0.368421052631579
445,1160.5594956658788,0.381578947368421
446,1160.5594956658788,0.4013157894736842
447,1160.5594956658788,0.36184210526315785
448,1163.3569739952718,0.4013157894736842
449,1163.3569739952718,0.42105263157894735
450,1163.3569739952718,0.4078947368421053
451,1163.3569739952718,0.4144736842105263
452,1166.1544523246653,0.4407894736842105
453,1166.1544523246653,0.4605263157894737
454,1166.1544523246653,0.45394736842105265
455,1166.1544523246653,0.4276315789473685
456,1166.1544523246653,0.42105263157894735
457,1166.1544523246653,0.4473684210526315
458,1166.1544523246653,0.4342105263157895
459,1168.9519306540583,0.4736842105263158
460,1168.9519306540583,0.4605263157894737
461,1168.9519306540583,0.4671052631578947
462,1171.7494089834518,0.4736842105263158
463,1171.7494089834518,0.48684210526315785
464,1171.7494089834518,0.48026315789473684
465,1174.5468873128448,0.48684210526315785
466,1177.3443656422378,0.48026315789473684
467,1177.3443656422378,0.48684210526315785
468,1177.3443656422378,0.4736842105263158
