,wavenumbers,absorbance
0,452.797478329393,0.05921052631578949
1,455.5949566587865,0.05921052631578949
2,458.3924349881795,0.05921052631578949
3,461.189913317573,0.05921052631578949
4,463.987391646966,0.05921052631578949
5,466.78486997635946,0.05921052631578949
6,469.5823483057525,0.05921052631578949
7,472.37982663514595,0.05921052631578949
8,475.17730496453896,0.05921052631578949
9,477.97478329393243,0.05921052631578949
10,480.77226162332545,0.05921052631578949
11,483.56973995271846,0.05921052631578949
12,486.36721828211193,0.05921052631578949
13,489.16469661150495,0.05921052631578949
14,491.9621749408984,0.05921052631578949
15,494.75965327029144,0.05921052631578949
16,497.5571315996849,0.06578947368421051
17,497.5571315996849,0.05921052631578949
18,500.3546099290779,0.09210526315789469
19,500.3546099290779,0.06578947368421051
20,500.3546099290779,0.07236842105263153
21,500.3546099290779,0.09868421052631582
22,500.3546099290779,0.07894736842105265
23,500.3546099290779,0.08552631578947367
24,503.1520882584714,0.125
25,503.1520882584714,0.13157894736842102
26,503.1520882584714,0.09868421052631582
27,503.1520882584714,0.11842105263157898
28,503.1520882584714,0.11184210526315785
29,503.1520882584714,0.10526315789473684
30,503.1520882584714,0.13815789473684215
31,505.9495665878644,0.17105263157894735
32,505.9495665878644,0.16447368421052633
33,505.9495665878644,0.15131578947368418
34,505.9495665878644,0.1578947368421053
35,505.9495665878644,0.14473684210526316
36,505.9495665878644,0.1907894736842105
37,505.9495665878644,0.13815789473684215
38,505.9495665878644,0.17763157894736847
39,505.9495665878644,0.19736842105263153
40,505.9495665878644,0.1842105263157895
41,508.7470449172579,0.22368421052631582
42,508.7470449172579,0.25
43,508.7470449172579,0.23684210526315785
44,508.7470449172579,0.19736842105263153
45,508.7470449172579,0.24342105263157898
46,508.7470449172579,0.20394736842105265
47,508.7470449172579,0.21052631578947367
48,508.7470449172579,0.23026315789473684
49,508.7470449172579,0.2171052631578947
50,511.5445232466509,0.23684210526315785
51,511.5445232466509,0.23026315789473684
52,511.5445232466509,0.25
53,511.5445232466509,0.24342105263157898
54,514.3420015760439,0.17105263157894735
55,514.3420015760439,0.1578947368421053
56,514.3420015760439,0.1907894736842105
57,514.3420015760439,0.1842105263157895
58,514.3420015760439,0.14473684210526316
59,514.3420015760439,0.20394736842105265
60,514.3420015760439,0.23026315789473684
61,514.3420015760439,0.22368421052631582
62,514.3420015760439,0.16447368421052633
63,514.3420015760439,0.15131578947368418
64,514.3420015760439,0.19736842105263153
65,514.3420015760439,0.17763157894736847
66,514.3420015760439,0.21052631578947367
67,514.3420015760439,0.2171052631578947
68,517.1394799054374,0.11184210526315785
69,517.1394799054374,0.11842105263157898
70,517.1394799054374,0.13157894736842102
71,517.1394799054374,0.14473684210526316
72,517.1394799054374,0.125
73,517.1394799054374,0.13815789473684215
74,519.9369582348304,0.09868421052631582
75,519.9369582348304,0.10526315789473684
76,519.9369582348304,0.09210526315789469
77,519.9369582348304,0.08552631578947367
78,519.9369582348304,0.11184210526315785
79,519.9369582348304,0.07894736842105265
80,522.7344365642239,0.09210526315789469
81,522.7344365642239,0.08552631578947367
82,522.7344365642239,0.07894736842105265
83,525.5319148936169,0.10526315789473684
84,525.5319148936169,0.09210526315789469
85,525.5319148936169,0.11184210526315785
86,525.5319148936169,0.09868421052631582
87,528.3293932230104,0.09210526315789469
88,528.3293932230104,0.09868421052631582
89,528.3293932230104,0.07894736842105265
90,528.3293932230104,0.08552631578947367
91,528.3293932230104,0.06578947368421051
92,528.3293932230104,0.10526315789473684
93,528.3293932230104,0.07236842105263153
94,531.1268715524034,0.05921052631578949
95,531.1268715524034,0.06578947368421051
96,531.1268715524034,0.052631578947368474
97,531.1268715524034,0.046052631578947345
98,533.9243498817968,0.03289473684210531
99,533.9243498817968,0.03947368421052633
100,533.9243498817968,0.02631578947368418
101,533.9243498817968,0.046052631578947345
102,536.7218282111899,0.02631578947368418
103,536.7218282111899,0.03289473684210531
104,539.5193065405833,0.03289473684210531
105,539.5193065405833,0.03947368421052633
106,539.5193065405833,0.046052631578947345
107,542.3167848699763,0.046052631578947345
108,542.3167848699763,0.052631578947368474
109,545.1142631993694,0.052631578947368474
110,545.1142631993694,0.05921052631578949
111,547.9117415287628,0.05921052631578949
112,550.7092198581558,0.046052631578947345
113,550.7092198581558,0.052631578947368474
114,550.7092198581558,0.05921052631578949
115,553.5066981875493,0.046052631578947345
116,553.5066981875493,0.03947368421052633
117,556.3041765169423,0.03947368421052633
118,559.1016548463358,0.03289473684210531
119,559.1016548463358,0.03947368421052633
120,561.8991331757288,0.03289473684210531
121,564.6966115051223,0.03289473684210531
122,564.6966115051223,0.03947368421052633
123,567.4940898345153,0.03947368421052633
124,570.2915681639088,0.046052631578947345
125,570.2915681639088,0.03947368421052633
126,573.0890464933018,0.046052631578947345
127,575.8865248226948,0.052631578947368474
128,575.8865248226948,0.046052631578947345
129,578.6840031520883,0.052631578947368474
130,581.4814814814813,0.052631578947368474
131,584.2789598108748,0.052631578947368474
132,584.2789598108748,0.05921052631578949
133,587.0764381402678,0.05921052631578949
134,587.0764381402678,0.052631578947368474
135,589.8739164696613,0.052631578947368474
136,592.6713947990543,0.052631578947368474
137,592.6713947990543,0.046052631578947345
138,595.4688731284477,0.046052631578947345
139,595.4688731284477,0.03947368421052633
140,598.2663514578408,0.03947368421052633
141,601.0638297872342,0.03289473684210531
142,601.0638297872342,0.03947368421052633
143,603.8613081166272,0.03289473684210531
144,606.6587864460207,0.046052631578947345
145,606.6587864460207,0.03947368421052633
146,606.6587864460207,0.03289473684210531
147,609.4562647754137,0.052631578947368474
148,609.4562647754137,0.046052631578947345
149,609.4562647754137,0.05921052631578949
150,612.2537431048067,0.11842105263157898
151,612.2537431048067,0.13157894736842102
152,612.2537431048067,0.10526315789473684
153,612.2537431048067,0.11184210526315785
154,612.2537431048067,0.13815789473684215
155,612.2537431048067,0.125
156,612.2537431048067,0.09210526315789469
157,612.2537431048067,0.08552631578947367
158,612.2537431048067,0.07894736842105265
159,612.2537431048067,0.06578947368421051
160,612.2537431048067,0.09868421052631582
161,612.2537431048067,0.05921052631578949
162,612.2537431048067,0.07236842105263153
163,615.0512214342002,0.13815789473684215
164,615.0512214342002,0.13157894736842102
165,615.0512214342002,0.08552631578947367
166,615.0512214342002,0.11184210526315785
167,615.0512214342002,0.11842105263157898
168,615.0512214342002,0.10526315789473684
169,615.0512214342002,0.09868421052631582
170,615.0512214342002,0.09210526315789469
171,615.0512214342002,0.125
172,617.8486997635932,0.07894736842105265
173,617.8486997635932,0.08552631578947367
174,617.8486997635932,0.05921052631578949
175,617.8486997635932,0.052631578947368474
176,617.8486997635932,0.06578947368421051
177,617.8486997635932,0.07236842105263153
178,620.6461780929867,0.052631578947368474
179,620.6461780929867,0.046052631578947345
180,620.6461780929867,0.03947368421052633
181,623.4436564223797,0.03947368421052633
182,623.4436564223797,0.03289473684210531
183,626.2411347517732,0.02631578947368418
184,626.2411347517732,0.03289473684210531
185,629.0386130811662,0.02631578947368418
186,631.8360914105597,0.02631578947368418
187,631.8360914105597,0.019736842105263164
188,634.6335697399527,0.019736842105263164
189,637.4310480693462,0.013157894736842146
190,637.4310480693462,0.019736842105263164
191,640.2285263987392,0.019736842105263164
192,640.2285263987392,0.013157894736842146
193,643.0260047281322,0.019736842105263164
194,643.0260047281322,0.02631578947368418
195,645.8234830575257,0.02631578947368418
196,648.6209613869187,0.02631578947368418
197,651.4184397163122,0.03289473684210531
198,651.4184397163122,0.02631578947368418
199,654.2159180457052,0.03289473684210531
200,657.0133963750986,0.03289473684210531
201,659.8108747044917,0.03289473684210531
202,662.6083530338851,0.03947368421052633
203,662.6083530338851,0.03289473684210531
204,665.4058313632781,0.03947368421052633
205,668.2033096926716,0.046052631578947345
206,668.2033096926716,0.03947368421052633
207,671.0007880220646,0.046052631578947345
208,673.7982663514576,0.052631578947368474
209,673.7982663514576,0.046052631578947345
210,676.5957446808511,0.06578947368421051
211,676.5957446808511,0.07236842105263153
212,676.5957446808511,0.05921052631578949
213,676.5957446808511,0.052631578947368474
214,679.3932230102441,0.07894736842105265
215,679.3932230102441,0.07236842105263153
216,679.3932230102441,0.08552631578947367
217,682.1907013396376,0.13815789473684215
218,682.1907013396376,0.13157894736842102
219,682.1907013396376,0.15131578947368418
220,682.1907013396376,0.14473684210526316
221,682.1907013396376,0.09210526315789469
222,682.1907013396376,0.08552631578947367
223,682.1907013396376,0.11184210526315785
224,682.1907013396376,0.10526315789473684
225,682.1907013396376,0.11842105263157898
226,682.1907013396376,0.125
227,682.1907013396376,0.09868421052631582
228,684.9881796690306,0.1907894736842105
229,684.9881796690306,0.23026315789473684
230,684.9881796690306,0.15131578947368418
231,684.9881796690306,0.21052631578947367
232,684.9881796690306,0.1842105263157895
233,684.9881796690306,0.24342105263157898
234,684.9881796690306,0.17763157894736847
235,684.9881796690306,0.2171052631578947
236,684.9881796690306,0.19736842105263153
237,684.9881796690306,0.1578947368421053
238,684.9881796690306,0.20394736842105265
239,684.9881796690306,0.16447368421052633
240,684.9881796690306,0.17105263157894735
241,684.9881796690306,0.22368421052631582
242,684.9881796690306,0.23684210526315785
243,687.7856579984241,0.4671052631578947
244,687.7856579984241,0.4342105263157895
245,687.7856579984241,0.48026315789473684
246,687.7856579984241,0.26315789473684215
247,687.7856579984241,0.29605263157894735
248,687.7856579984241,0.368421052631579
249,687.7856579984241,0.42105263157894735
250,687.7856579984241,0.4407894736842105
251,687.7856579984241,0.36184210526315785
252,687.7856579984241,0.2828947368421053
253,687.7856579984241,0.4736842105263158
254,687.7856579984241,0.45394736842105265
255,687.7856579984241,0.4276315789473685
256,687.7856579984241,0.4473684210526315
257,687.7856579984241,0.2894736842105263
258,687.7856579984241,0.26973684210526316
259,687.7856579984241,0.375
260,687.7856579984241,0.381578947368421
261,687.7856579984241,0.4605263157894737
262,687.7856579984241,0.2763157894736842
263,687.7856579984241,0.38815789473684215
264,687.7856579984241,0.4078947368421053
265,687.7856579984241,0.4013157894736842
266,687.7856579984241,0.39473684210526316
267,687.7856579984241,0.3157894736842105
268,687.7856579984241,0.32894736842105265
269,687.7856579984241,0.256578947368421
270,687.7856579984241,0.3026315789473685
271,687.7856579984241,0.35526315789473684
272,687.7856579984241,0.3223684210526315
273,687.7856579984241,0.3486842105263158
274,687.7856579984241,0.4144736842105263
275,687.7856579984241,0.3092105263157895
276,687.7856579984241,0.24342105263157898
277,687.7856579984241,0.25
278,687.7856579984241,0.3355263157894737
279,687.7856579984241,0.3421052631578947
280,690.5831363278171,0.493421052631579
281,690.5831363278171,0.48684210526315785
282,690.5831363278171,0.48026315789473684
283,693.3806146572106,0.4013157894736842
284,693.3806146572106,0.4342105263157895
285,693.3806146572106,0.39473684210526316
286,693.3806146572106,0.36184210526315785
287,693.3806146572106,0.375
288,693.3806146572106,0.4144736842105263
289,693.3806146572106,0.35526315789473684
290,693.3806146572106,0.4736842105263158
291,693.3806146572106,0.4605263157894737
292,693.3806146572106,0.48684210526315785
293,693.3806146572106,0.4473684210526315
294,693.3806146572106,0.4078947368421053
295,693.3806146572106,0.4407894736842105
296,693.3806146572106,0.493421052631579
297,693.3806146572106,0.42105263157894735
298,693.3806146572106,0.38815789473684215
299,693.3806146572106,0.368421052631579
300,693.3806146572106,0.4276315789473685
301,693.3806146572106,0.4671052631578947
302,693.3806146572106,0.3421052631578947
303,693.3806146572106,0.3486842105263158
304,693.3806146572106,0.3355263157894737
305,693.3806146572106,0.48026315789473684
306,693.3806146572106,0.45394736842105265
307,693.3806146572106,0.381578947368421
308,696.1780929866036,0.2894736842105263
309,696.1780929866036,0.29605263157894735
310,696.1780929866036,0.32894736842105265
311,696.1780929866036,0.3355263157894737
312,696.1780929866036,0.26315789473684215
313,696.1780929866036,0.3157894736842105
314,696.1780929866036,0.3026315789473685
315,696.1780929866036,0.24342105263157898
316,696.1780929866036,0.2828947368421053
317,696.1780929866036,0.26973684210526316
318,696.1780929866036,0.256578947368421
319,696.1780929866036,0.2763157894736842
320,696.1780929866036,0.3092105263157895
321,696.1780929866036,0.23684210526315785
322,696.1780929866036,0.3223684210526315
323,696.1780929866036,0.25
324,698.9755713159971,0.125
325,698.9755713159971,0.20394736842105265
326,698.9755713159971,0.16447368421052633
327,698.9755713159971,0.13157894736842102
328,698.9755713159971,0.1907894736842105
329,698.9755713159971,0.23026315789473684
330,698.9755713159971,0.1578947368421053
331,698.9755713159971,0.15131578947368418
332,698.9755713159971,0.22368421052631582
333,698.9755713159971,0.1842105263157895
334,698.9755713159971,0.2171052631578947
335,698.9755713159971,0.17763157894736847
336,698.9755713159971,0.14473684210526316
337,698.9755713159971,0.13815789473684215
338,698.9755713159971,0.17105263157894735
339,698.9755713159971,0.19736842105263153
340,698.9755713159971,0.21052631578947367
341,698.9755713159971,0.11842105263157898
342,701.7730496453901,0.10526315789473684
343,701.7730496453901,0.11184210526315785
344,701.7730496453901,0.09868421052631582
345,701.7730496453901,0.11842105263157898
346,704.5705279747831,0.09210526315789469
347,704.5705279747831,0.09868421052631582
348,707.3680063041766,0.09210526315789469
349,710.1654846335696,0.09210526315789469
350,712.962962962963,0.09868421052631582
351,712.962962962963,0.09210526315789469
352,715.7604412923561,0.09868421052631582
353,718.5579196217495,0.09868421052631582
354,718.5579196217495,0.10526315789473684
355,721.3553979511425,0.10526315789473684
356,721.3553979511425,0.11184210526315785
357,724.152876280536,0.11842105263157898
358,724.152876280536,0.11184210526315785
359,726.950354609929,0.11842105263157898
360,726.950354609929,0.125
361,729.7478329393225,0.13157894736842102
362,729.7478329393225,0.125
363,732.5453112687155,0.14473684210526316
364,732.5453112687155,0.13157894736842102
365,732.5453112687155,0.13815789473684215
366,732.5453112687155,0.15131578947368418
367,735.3427895981085,0.15131578947368418
368,735.3427895981085,0.1578947368421053
369,738.140267927502,0.17105263157894735
370,738.140267927502,0.16447368421052633
371,738.140267927502,0.1842105263157895
372,738.140267927502,0.1907894736842105
373,738.140267927502,0.20394736842105265
374,738.140267927502,0.19736842105263153
375,738.140267927502,0.17763157894736847
376,738.140267927502,0.1578947368421053
377,740.937746256895,0.23684210526315785
378,740.937746256895,0.22368421052631582
379,740.937746256895,0.24342105263157898
380,740.937746256895,0.20394736842105265
381,740.937746256895,0.23026315789473684
382,740.937746256895,0.21052631578947367
383,740.937746256895,0.2171052631578947
384,743.7352245862885,0.26973684210526316
385,743.7352245862885,0.3092105263157895
386,743.7352245862885,0.3026315789473685
387,743.7352245862885,0.2763157894736842
388,743.7352245862885,0.3223684210526315
389,743.7352245862885,0.368421052631579
390,743.7352245862885,0.35526315789473684
391,743.7352245862885,0.36184210526315785
392,743.7352245862885,0.3421052631578947
393,743.7352245862885,0.3157894736842105
394,743.7352245862885,0.256578947368421
395,743.7352245862885,0.3355263157894737
396,743.7352245862885,0.3486842105263158
397,743.7352245862885,0.2828947368421053
398,743.7352245862885,0.25
399,743.7352245862885,0.32894736842105265
400,743.7352245862885,0.381578947368421
401,743.7352245862885,0.375
402,743.7352245862885,0.29605263157894735
403,743.7352245862885,0.26315789473684215
404,743.7352245862885,0.24342105263157898
405,743.7352245862885,0.2894736842105263
406,746.5327029156815,0.4736842105263158
407,746.5327029156815,0.38815789473684215
408,746.5327029156815,0.4013157894736842
409,746.5327029156815,0.45394736842105265
410,746.5327029156815,0.4342105263157895
411,746.5327029156815,0.39473684210526316
412,746.5327029156815,0.4407894736842105
413,746.5327029156815,0.4671052631578947
414,746.5327029156815,0.4473684210526315
415,746.5327029156815,0.42105263157894735
416,746.5327029156815,0.4276315789473685
417,746.5327029156815,0.4078947368421053
418,746.5327029156815,0.381578947368421
419,746.5327029156815,0.4605263157894737
420,746.5327029156815,0.4144736842105263
421,749.330181245075,0.5723684210526316
422,749.330181245075,0.5592105263157895
423,749.330181245075,0.5526315789473684
424,749.330181245075,0.5460526315789473
425,749.330181245075,0.48684210526315785
426,749.330181245075,0.48026315789473684
427,749.330181245075,0.493421052631579
428,749.330181245075,0.5
429,749.330181245075,0.4736842105263158
430,749.330181245075,0.506578947368421
431,749.330181245075,0.6052631578947368
432,749.330181245075,0.513157894736842
433,749.330181245075,0.5197368421052632
434,749.330181245075,0.5986842105263157
435,749.330181245075,0.5263157894736843
436,749.330181245075,0.5921052631578947
437,749.330181245075,0.5328947368421053
438,749.330181245075,0.5394736842105263
439,749.330181245075,0.5855263157894737
440,749.330181245075,0.5789473684210527
441,749.330181245075,0.5657894736842105
442,752.127659574468,0.6052631578947368
443,752.127659574468,0.618421052631579
444,752.127659574468,0.625
445,752.127659574468,0.611842105263158
446,752.127659574468,0.631578947368421
447,754.9251379038615,0.611842105263158
448,754.9251379038615,0.618421052631579
449,754.9251379038615,0.5986842105263157
450,754.9251379038615,0.625
451,754.9251379038615,0.631578947368421
452,754.9251379038615,0.6052631578947368
453,757.7226162332545,0.5986842105263157
454,757.7226162332545,0.5460526315789473
455,757.7226162332545,0.5789473684210527
456,757.7226162332545,0.5855263157894737
457,757.7226162332545,0.5526315789473684
458,757.7226162332545,0.5723684210526316
459,757.7226162332545,0.5921052631578947
460,757.7226162332545,0.5657894736842105
461,757.7226162332545,0.5592105263157895
462,760.520094562648,0.5394736842105263
463,760.520094562648,0.5
464,760.520094562648,0.5263157894736843
465,760.520094562648,0.5460526315789473
466,760.520094562648,0.48684210526315785
467,760.520094562648,0.506578947368421
468,760.520094562648,0.48026315789473684
469,760.520094562648,0.4671052631578947
470,760.520094562648,0.5328947368421053
471,760.520094562648,0.4736842105263158
472,760.520094562648,0.513157894736842
473,760.520094562648,0.493421052631579
474,760.520094562648,0.5197368421052632
475,763.317572892041,0.4144736842105263
476,763.317572892041,0.4407894736842105
477,763.317572892041,0.32894736842105265
