,wavenumbers,absorbance
0,452.797478329393,0.03289473684210531
1,452.797478329393,0.03947368421052633
2,455.5949566587865,0.03289473684210531
3,458.3924349881795,0.03289473684210531
4,461.189913317573,0.03289473684210531
5,463.987391646966,0.03289473684210531
6,466.78486997635946,0.03289473684210531
7,466.78486997635946,0.03947368421052633
8,469.5823483057525,0.03947368421052633
9,472.37982663514595,0.03947368421052633
10,475.17730496453896,0.03947368421052633
11,477.97478329393243,0.03947368421052633
12,477.97478329393243,0.03289473684210531
13,480.77226162332545,0.03289473684210531
14,483.56973995271846,0.03289473684210531
15,486.36721828211193,0.03289473684210531
16,489.16469661150495,0.03289473684210531
17,491.9621749408984,0.03289473684210531
18,491.9621749408984,0.03947368421052633
19,494.75965327029144,0.03289473684210531
20,494.75965327029144,0.03947368421052633
21,497.5571315996849,0.03289473684210531
22,500.3546099290779,0.03289473684210531
23,500.3546099290779,0.03947368421052633
24,503.1520882584714,0.03947368421052633
25,505.9495665878644,0.03947368421052633
26,508.7470449172579,0.03947368421052633
27,511.5445232466509,0.03947368421052633
28,514.3420015760439,0.03947368421052633
29,517.1394799054374,0.046052631578947345
30,517.1394799054374,0.03947368421052633
31,519.9369582348304,0.046052631578947345
32,522.7344365642239,0.046052631578947345
33,525.5319148936169,0.046052631578947345
34,528.3293932230104,0.046052631578947345
35,531.1268715524034,0.052631578947368474
36,531.1268715524034,0.046052631578947345
37,533.9243498817968,0.052631578947368474
38,536.7218282111899,0.052631578947368474
39,539.5193065405833,0.052631578947368474
40,542.3167848699763,0.05921052631578949
41,542.3167848699763,0.052631578947368474
42,545.1142631993694,0.05921052631578949
43,547.9117415287628,0.05921052631578949
44,550.7092198581558,0.052631578947368474
45,550.7092198581558,0.05921052631578949
46,553.5066981875493,0.046052631578947345
47,553.5066981875493,0.052631578947368474
48,556.3041765169423,0.046052631578947345
49,559.1016548463358,0.03947368421052633
50,559.1016548463358,0.046052631578947345
51,561.8991331757288,0.03947368421052633
52,564.6966115051223,0.03289473684210531
53,564.6966115051223,0.03947368421052633
54,567.4940898345153,0.03289473684210531
55,570.2915681639088,0.03289473684210531
56,573.0890464933018,0.03289473684210531
57,575.8865248226948,0.03289473684210531
58,578.6840031520883,0.02631578947368418
59,578.6840031520883,0.03289473684210531
60,581.4814814814813,0.02631578947368418
61,584.2789598108748,0.02631578947368418
62,587.0764381402678,0.02631578947368418
63,589.8739164696613,0.02631578947368418
64,592.6713947990543,0.02631578947368418
65,595.4688731284477,0.02631578947368418
66,598.2663514578408,0.02631578947368418
67,601.0638297872342,0.02631578947368418
68,603.8613081166272,0.02631578947368418
69,606.6587864460207,0.02631578947368418
70,609.4562647754137,0.02631578947368418
71,612.2537431048067,0.02631578947368418
72,615.0512214342002,0.02631578947368418
73,617.8486997635932,0.02631578947368418
74,620.6461780929867,0.02631578947368418
75,623.4436564223797,0.02631578947368418
76,626.2411347517732,0.02631578947368418
77,629.0386130811662,0.02631578947368418
78,629.0386130811662,0.019736842105263164
79,631.8360914105597,0.019736842105263164
80,634.6335697399527,0.019736842105263164
81,637.4310480693462,0.019736842105263164
82,640.2285263987392,0.019736842105263164
83,643.0260047281322,0.019736842105263164
84,645.8234830575257,0.019736842105263164
85,648.6209613869187,0.019736842105263164
86,651.4184397163122,0.019736842105263164
87,654.2159180457052,0.019736842105263164
88,657.0133963750986,0.019736842105263164
89,657.0133963750986,0.02631578947368418
90,659.8108747044917,0.02631578947368418
91,662.6083530338851,0.02631578947368418
92,665.4058313632781,0.02631578947368418
93,668.2033096926716,0.02631578947368418
94,671.0007880220646,0.02631578947368418
95,673.7982663514576,0.02631578947368418
96,676.5957446808511,0.02631578947368418
97,676.5957446808511,0.019736842105263164
98,679.3932230102441,0.02631578947368418
99,682.1907013396376,0.03289473684210531
100,682.1907013396376,0.02631578947368418
101,684.9881796690306,0.03289473684210531
102,684.9881796690306,0.03947368421052633
103,687.7856579984241,0.052631578947368474
104,687.7856579984241,0.046052631578947345
105,687.7856579984241,0.03947368421052633
106,687.7856579984241,0.09210526315789469
107,687.7856579984241,0.06578947368421051
108,687.7856579984241,0.08552631578947367
109,687.7856579984241,0.10526315789473684
110,687.7856579984241,0.05921052631578949
111,687.7856579984241,0.09868421052631582
112,687.7856579984241,0.11842105263157898
113,687.7856579984241,0.07894736842105265
114,687.7856579984241,0.07236842105263153
115,687.7856579984241,0.11184210526315785
116,690.5831363278171,0.2171052631578947
117,690.5831363278171,0.17105263157894735
118,690.5831363278171,0.19736842105263153
119,690.5831363278171,0.1578947368421053
120,690.5831363278171,0.1907894736842105
121,690.5831363278171,0.1842105263157895
122,690.5831363278171,0.17763157894736847
123,690.5831363278171,0.14473684210526316
124,690.5831363278171,0.20394736842105265
125,690.5831363278171,0.21052631578947367
126,690.5831363278171,0.13157894736842102
127,690.5831363278171,0.13815789473684215
128,690.5831363278171,0.125
129,690.5831363278171,0.15131578947368418
130,690.5831363278171,0.16447368421052633
131,690.5831363278171,0.22368421052631582
132,690.5831363278171,0.11842105263157898
133,690.5831363278171,0.23026315789473684
134,693.3806146572106,0.4736842105263158
135,693.3806146572106,0.48026315789473684
136,693.3806146572106,0.48684210526315785
137,693.3806146572106,0.493421052631579
138,693.3806146572106,0.513157894736842
139,693.3806146572106,0.506578947368421
140,693.3806146572106,0.5394736842105263
141,693.3806146572106,0.4671052631578947
142,693.3806146572106,0.5263157894736843
143,693.3806146572106,0.5
144,693.3806146572106,0.5328947368421053
145,693.3806146572106,0.5197368421052632
146,693.3806146572106,0.4605263157894737
147,693.3806146572106,0.35526315789473684
148,693.3806146572106,0.4473684210526315
149,693.3806146572106,0.26315789473684215
150,693.3806146572106,0.256578947368421
151,693.3806146572106,0.26973684210526316
152,693.3806146572106,0.2763157894736842
153,693.3806146572106,0.25
154,693.3806146572106,0.2828947368421053
155,693.3806146572106,0.2894736842105263
156,693.3806146572106,0.29605263157894735
157,693.3806146572106,0.24342105263157898
158,693.3806146572106,0.3026315789473685
159,693.3806146572106,0.3092105263157895
160,693.3806146572106,0.23684210526315785
161,693.3806146572106,0.3157894736842105
162,693.3806146572106,0.3223684210526315
163,693.3806146572106,0.45394736842105265
164,693.3806146572106,0.23026315789473684
165,693.3806146572106,0.3355263157894737
166,693.3806146572106,0.3421052631578947
167,693.3806146572106,0.36184210526315785
168,693.3806146572106,0.368421052631579
169,693.3806146572106,0.375
170,693.3806146572106,0.381578947368421
171,693.3806146572106,0.38815789473684215
172,693.3806146572106,0.39473684210526316
173,693.3806146572106,0.4013157894736842
174,693.3806146572106,0.4144736842105263
175,693.3806146572106,0.42105263157894735
176,693.3806146572106,0.4276315789473685
177,693.3806146572106,0.4342105263157895
178,693.3806146572106,0.4407894736842105
179,693.3806146572106,0.32894736842105265
180,693.3806146572106,0.3486842105263158
181,693.3806146572106,0.4078947368421053
182,693.3806146572106,0.5855263157894737
183,693.3806146572106,0.5723684210526316
184,693.3806146572106,0.611842105263158
185,693.3806146572106,0.5986842105263157
186,693.3806146572106,0.6052631578947368
187,693.3806146572106,0.618421052631579
188,693.3806146572106,0.5460526315789473
189,693.3806146572106,0.5657894736842105
190,693.3806146572106,0.5592105263157895
191,693.3806146572106,0.5921052631578947
192,693.3806146572106,0.5526315789473684
193,693.3806146572106,0.5789473684210527
194,696.1780929866036,0.625
195,696.1780929866036,0.6513157894736843
196,696.1780929866036,0.618421052631579
197,696.1780929866036,0.631578947368421
198,696.1780929866036,0.6447368421052632
199,696.1780929866036,0.638157894736842
200,698.9755713159971,0.4342105263157895
201,698.9755713159971,0.4407894736842105
202,698.9755713159971,0.5460526315789473
203,698.9755713159971,0.5986842105263157
204,698.9755713159971,0.4671052631578947
205,698.9755713159971,0.4736842105263158
206,698.9755713159971,0.4473684210526315
207,698.9755713159971,0.4605263157894737
208,698.9755713159971,0.6513157894736843
209,698.9755713159971,0.6052631578947368
210,698.9755713159971,0.42105263157894735
211,698.9755713159971,0.4144736842105263
212,698.9755713159971,0.5921052631578947
213,698.9755713159971,0.6447368421052632
214,698.9755713159971,0.611842105263158
215,698.9755713159971,0.638157894736842
216,698.9755713159971,0.618421052631579
217,698.9755713159971,0.625
218,698.9755713159971,0.631578947368421
219,698.9755713159971,0.4276315789473685
220,698.9755713159971,0.48026315789473684
221,698.9755713159971,0.45394736842105265
222,698.9755713159971,0.5
223,698.9755713159971,0.493421052631579
224,698.9755713159971,0.5197368421052632
225,698.9755713159971,0.5789473684210527
226,698.9755713159971,0.5657894736842105
227,698.9755713159971,0.5263157894736843
228,698.9755713159971,0.5723684210526316
229,698.9755713159971,0.5328947368421053
230,698.9755713159971,0.513157894736842
231,698.9755713159971,0.506578947368421
232,698.9755713159971,0.5526315789473684
233,698.9755713159971,0.48684210526315785
234,698.9755713159971,0.5855263157894737
235,698.9755713159971,0.5394736842105263
236,698.9755713159971,0.5592105263157895
237,701.7730496453901,0.2828947368421053
238,701.7730496453901,0.4144736842105263
239,701.7730496453901,0.3486842105263158
240,701.7730496453901,0.3421052631578947
241,701.7730496453901,0.3355263157894737
242,701.7730496453901,0.32894736842105265
243,701.7730496453901,0.4013157894736842
244,701.7730496453901,0.36184210526315785
245,701.7730496453901,0.368421052631579
246,701.7730496453901,0.39473684210526316
247,701.7730496453901,0.375
248,701.7730496453901,0.4078947368421053
249,701.7730496453901,0.35526315789473684
250,701.7730496453901,0.38815789473684215
251,701.7730496453901,0.381578947368421
252,701.7730496453901,0.2894736842105263
253,701.7730496453901,0.3223684210526315
254,701.7730496453901,0.29605263157894735
255,701.7730496453901,0.3092105263157895
256,701.7730496453901,0.3157894736842105
257,701.7730496453901,0.3026315789473685
258,704.5705279747831,0.23026315789473684
259,704.5705279747831,0.22368421052631582
260,704.5705279747831,0.20394736842105265
261,704.5705279747831,0.1907894736842105
262,704.5705279747831,0.25
263,704.5705279747831,0.19736842105263153
264,704.5705279747831,0.26315789473684215
265,704.5705279747831,0.1842105263157895
266,704.5705279747831,0.24342105263157898
267,704.5705279747831,0.2828947368421053
268,704.5705279747831,0.17763157894736847
269,704.5705279747831,0.256578947368421
270,704.5705279747831,0.23684210526315785
271,704.5705279747831,0.26973684210526316
272,704.5705279747831,0.21052631578947367
273,704.5705279747831,0.2171052631578947
274,704.5705279747831,0.2763157894736842
275,707.3680063041766,0.11842105263157898
276,707.3680063041766,0.07894736842105265
277,707.3680063041766,0.17105263157894735
278,707.3680063041766,0.07236842105263153
279,707.3680063041766,0.11184210526315785
280,707.3680063041766,0.08552631578947367
281,707.3680063041766,0.06578947368421051
282,707.3680063041766,0.09868421052631582
283,707.3680063041766,0.16447368421052633
284,707.3680063041766,0.13157894736842102
285,707.3680063041766,0.09210526315789469
286,707.3680063041766,0.1578947368421053
287,707.3680063041766,0.10526315789473684
288,707.3680063041766,0.15131578947368418
289,707.3680063041766,0.13815789473684215
290,707.3680063041766,0.17763157894736847
291,707.3680063041766,0.05921052631578949
292,707.3680063041766,0.125
293,707.3680063041766,0.14473684210526316
294,710.1654846335696,0.05921052631578949
295,710.1654846335696,0.046052631578947345
296,710.1654846335696,0.052631578947368474
297,710.1654846335696,0.03947368421052633
298,712.962962962963,0.02631578947368418
299,712.962962962963,0.03947368421052633
300,712.962962962963,0.03289473684210531
301,715.7604412923561,0.02631578947368418
302,715.7604412923561,0.019736842105263164
303,718.5579196217495,0.019736842105263164
304,721.3553979511425,0.019736842105263164
305,724.152876280536,0.019736842105263164
306,724.152876280536,0.02631578947368418
307,726.950354609929,0.03289473684210531
308,726.950354609929,0.02631578947368418
309,729.7478329393225,0.03947368421052633
310,729.7478329393225,0.03289473684210531
311,732.5453112687155,0.03947368421052633
312,732.5453112687155,0.046052631578947345
313,732.5453112687155,0.052631578947368474
314,735.3427895981085,0.052631578947368474
315,735.3427895981085,0.06578947368421051
316,735.3427895981085,0.05921052631578949
317,738.140267927502,0.07236842105263153
318,738.140267927502,0.06578947368421051
319,740.937746256895,0.07894736842105265
320,740.937746256895,0.07236842105263153
321,743.7352245862885,0.08552631578947367
322,743.7352245862885,0.10526315789473684
323,743.7352245862885,0.11184210526315785
324,743.7352245862885,0.09210526315789469
325,743.7352245862885,0.09868421052631582
326,743.7352245862885,0.07894736842105265
327,746.5327029156815,0.11184210526315785
328,746.5327029156815,0.125
329,746.5327029156815,0.11842105263157898
330,746.5327029156815,0.13157894736842102
331,749.330181245075,0.14473684210526316
332,749.330181245075,0.1907894736842105
333,749.330181245075,0.1578947368421053
334,749.330181245075,0.13815789473684215
335,749.330181245075,0.15131578947368418
336,749.330181245075,0.17105263157894735
337,749.330181245075,0.17763157894736847
338,749.330181245075,0.16447368421052633
339,749.330181245075,0.1842105263157895
340,752.127659574468,0.19736842105263153
341,752.127659574468,0.22368421052631582
342,752.127659574468,0.21052631578947367
343,752.127659574468,0.1907894736842105
344,752.127659574468,0.20394736842105265
345,752.127659574468,0.2171052631578947
346,754.9251379038615,0.26315789473684215
347,754.9251379038615,0.22368421052631582
348,754.9251379038615,0.23684210526315785
349,754.9251379038615,0.25
350,754.9251379038615,0.256578947368421
351,754.9251379038615,0.24342105263157898
352,754.9251379038615,0.23026315789473684
353,757.7226162332545,0.256578947368421
354,757.7226162332545,0.26315789473684215
355,760.520094562648,0.24342105263157898
356,760.520094562648,0.25
357,760.520094562648,0.256578947368421
358,760.520094562648,0.23684210526315785
359,763.317572892041,0.21052631578947367
360,763.317572892041,0.23026315789473684
361,763.317572892041,0.17105263157894735
362,763.317572892041,0.20394736842105265
363,763.317572892041,0.23684210526315785
364,763.317572892041,0.2171052631578947
365,763.317572892041,0.1842105263157895
366,763.317572892041,0.19736842105263153
367,763.317572892041,0.22368421052631582
368,763.317572892041,0.17763157894736847
369,763.317572892041,0.1907894736842105
370,766.115051221434,0.15131578947368418
371,766.115051221434,0.1578947368421053
372,766.115051221434,0.17105263157894735
373,766.115051221434,0.16447368421052633
374,766.115051221434,0.14473684210526316
375,768.9125295508275,0.11184210526315785
376,768.9125295508275,0.13157894736842102
377,768.9125295508275,0.09868421052631582
378,768.9125295508275,0.11842105263157898
379,768.9125295508275,0.10526315789473684
380,768.9125295508275,0.125
381,768.9125295508275,0.14473684210526316
382,768.9125295508275,0.13815789473684215
383,771.7100078802205,0.09868421052631582
384,771.7100078802205,0.07894736842105265
385,771.7100078802205,0.08552631578947367
386,771.7100078802205,0.09210526315789469
387,774.507486209614,0.07236842105263153
388,774.507486209614,0.05921052631578949
389,774.507486209614,0.07894736842105265
390,774.507486209614,0.06578947368421051
391,774.507486209614,0.052631578947368474
392,777.304964539007,0.046052631578947345
393,777.304964539007,0.052631578947368474
394,780.1024428684004,0.03947368421052633
395,780.1024428684004,0.03289473684210531
396,780.1024428684004,0.046052631578947345
397,782.8999211977934,0.03289473684210531
398,785.6973995271869,0.03289473684210531
399,785.6973995271869,0.02631578947368418
400,788.4948778565799,0.02631578947368418
401,791.2923561859734,0.02631578947368418
402,794.0898345153664,0.02631578947368418
403,796.8873128447594,0.02631578947368418
404,799.6847911741529,0.02631578947368418
405,802.4822695035459,0.02631578947368418
406,802.4822695035459,0.03289473684210531
407,805.2797478329394,0.03289473684210531
408,808.0772261623324,0.03289473684210531
409,810.8747044917259,0.03289473684210531
410,813.6721828211189,0.03289473684210531
411,813.6721828211189,0.02631578947368418
412,816.4696611505124,0.02631578947368418
413,819.2671394799054,0.019736842105263164
414,819.2671394799054,0.02631578947368418
415,822.0646178092989,0.019736842105263164
416,824.8620961386919,0.019736842105263164
417,827.6595744680849,0.019736842105263164
418,827.6595744680849,0.02631578947368418
419,830.4570527974784,0.02631578947368418
420,830.4570527974784,0.03289473684210531
421,833.2545311268714,0.03947368421052633
422,833.2545311268714,0.03289473684210531
423,836.0520094562648,0.046052631578947345
424,836.0520094562648,0.03947368421052633
425,838.8494877856579,0.046052631578947345
426,841.6469661150513,0.046052631578947345
427,844.4444444444443,0.046052631578947345
428,844.4444444444443,0.03947368421052633
429,847.2419227738378,0.03947368421052633
430,847.2419227738378,0.03289473684210531
431,850.0394011032308,0.03289473684210531
432,850.0394011032308,0.02631578947368418
433,852.8368794326243,0.02631578947368418
434,855.6343577620173,0.019736842105263164
435,855.6343577620173,0.02631578947368418
436,858.4318360914103,0.019736842105263164
437,861.2293144208038,0.019736842105263164
438,864.0267927501968,0.019736842105263164
439,866.8242710795903,0.019736842105263164
440,869.6217494089833,0.019736842105263164
441,872.4192277383768,0.019736842105263164
442,875.2167060677698,0.019736842105263164
443,878.0141843971633,0.019736842105263164
444,880.8116627265563,0.019736842105263164
445,883.6091410559497,0.019736842105263164
446,886.4066193853428,0.019736842105263164
447,889.2040977147362,0.019736842105263164
448,889.2040977147362,0.02631578947368418
449,892.0015760441293,0.02631578947368418
450,894.7990543735223,0.02631578947368418
451,897.5965327029157,0.02631578947368418
452,897.5965327029157,0.03947368421052633
453,897.5965327029157,0.03289473684210531
454,900.3940110323088,0.03947368421052633
455,903.1914893617022,0.03947368421052633
456,905.9889676910952,0.03947368421052633
457,908.7864460204887,0.03947368421052633
458,911.5839243498817,0.03289473684210531
459,911.5839243498817,0.03947368421052633
460,914.3814026792752,0.03289473684210531
461,917.1788810086682,0.03289473684210531
462,919.9763593380617,0.03289473684210531
463,922.7738376674547,0.03289473684210531
464,925.5713159968477,0.03289473684210531
465,925.5713159968477,0.03947368421052633
466,928.3687943262412,0.03947368421052633
467,931.1662726556342,0.046052631578947345
468,931.1662726556342,0.03947368421052633
469,933.9637509850277,0.046052631578947345
470,936.7612293144207,0.046052631578947345
471,939.5587076438142,0.046052631578947345
472,942.3561859732072,0.046052631578947345
473,945.1536643026006,0.046052631578947345
