,wavenumbers,absorbance
0,452.797478329393,0.06578947368421051
1,452.797478329393,0.05921052631578949
2,455.5949566587865,0.05921052631578949
3,458.3924349881795,0.052631578947368474
4,458.3924349881795,0.05921052631578949
5,461.189913317573,0.052631578947368474
6,463.987391646966,0.046052631578947345
7,463.987391646966,0.052631578947368474
8,466.78486997635946,0.046052631578947345
9,469.5823483057525,0.046052631578947345
10,472.37982663514595,0.046052631578947345
11,475.17730496453896,0.046052631578947345
12,475.17730496453896,0.03947368421052633
13,477.97478329393243,0.03947368421052633
14,480.77226162332545,0.03947368421052633
15,483.56973995271846,0.03947368421052633
16,486.36721828211193,0.03947368421052633
17,489.16469661150495,0.03289473684210531
18,489.16469661150495,0.03947368421052633
19,491.9621749408984,0.03289473684210531
20,494.75965327029144,0.03289473684210531
21,497.5571315996849,0.03289473684210531
22,500.3546099290779,0.03289473684210531
23,503.1520882584714,0.03289473684210531
24,505.9495665878644,0.03289473684210531
25,508.7470449172579,0.03289473684210531
26,511.5445232466509,0.02631578947368418
27,511.5445232466509,0.03289473684210531
28,514.3420015760439,0.02631578947368418
29,517.1394799054374,0.02631578947368418
30,519.9369582348304,0.02631578947368418
31,522.7344365642239,0.02631578947368418
32,525.5319148936169,0.02631578947368418
33,528.3293932230104,0.02631578947368418
34,531.1268715524034,0.02631578947368418
35,533.9243498817968,0.019736842105263164
36,533.9243498817968,0.02631578947368418
37,536.7218282111899,0.019736842105263164
38,539.5193065405833,0.019736842105263164
39,542.3167848699763,0.019736842105263164
40,545.1142631993694,0.019736842105263164
41,547.9117415287628,0.019736842105263164
42,550.7092198581558,0.019736842105263164
43,553.5066981875493,0.019736842105263164
44,556.3041765169423,0.019736842105263164
45,559.1016548463358,0.019736842105263164
46,561.8991331757288,0.019736842105263164
47,564.6966115051223,0.019736842105263164
48,567.4940898345153,0.019736842105263164
49,570.2915681639088,0.019736842105263164
50,573.0890464933018,0.019736842105263164
51,575.8865248226948,0.019736842105263164
52,578.6840031520883,0.019736842105263164
53,581.4814814814813,0.019736842105263164
54,584.2789598108748,0.019736842105263164
55,587.0764381402678,0.019736842105263164
56,589.8739164696613,0.019736842105263164
57,592.6713947990543,0.019736842105263164
58,595.4688731284477,0.019736842105263164
59,598.2663514578408,0.019736842105263164
60,601.0638297872342,0.019736842105263164
61,603.8613081166272,0.019736842105263164
62,606.6587864460207,0.019736842105263164
63,609.4562647754137,0.019736842105263164
64,612.2537431048067,0.019736842105263164
65,615.0512214342002,0.019736842105263164
66,617.8486997635932,0.019736842105263164
67,620.6461780929867,0.019736842105263164
68,623.4436564223797,0.019736842105263164
69,626.2411347517732,0.019736842105263164
70,629.0386130811662,0.019736842105263164
71,631.8360914105597,0.019736842105263164
72,634.6335697399527,0.019736842105263164
73,637.4310480693462,0.019736842105263164
74,640.2285263987392,0.019736842105263164
75,643.0260047281322,0.019736842105263164
76,645.8234830575257,0.019736842105263164
77,648.6209613869187,0.019736842105263164
78,651.4184397163122,0.019736842105263164
79,654.2159180457052,0.019736842105263164
80,657.0133963750986,0.019736842105263164
81,659.8108747044917,0.019736842105263164
82,662.6083530338851,0.019736842105263164
83,665.4058313632781,0.019736842105263164
84,668.2033096926716,0.019736842105263164
85,671.0007880220646,0.019736842105263164
86,673.7982663514576,0.019736842105263164
87,676.5957446808511,0.019736842105263164
88,679.3932230102441,0.019736842105263164
89,682.1907013396376,0.019736842105263164
90,682.1907013396376,0.02631578947368418
91,684.9881796690306,0.02631578947368418
92,684.9881796690306,0.019736842105263164
93,687.7856579984241,0.02631578947368418
94,690.5831363278171,0.02631578947368418
95,693.3806146572106,0.03289473684210531
96,693.3806146572106,0.02631578947368418
97,696.1780929866036,0.03289473684210531
98,698.9755713159971,0.03289473684210531
99,701.7730496453901,0.03289473684210531
100,704.5705279747831,0.03289473684210531
101,707.3680063041766,0.03289473684210531
102,707.3680063041766,0.03947368421052633
103,710.1654846335696,0.03947368421052633
104,712.962962962963,0.046052631578947345
105,712.962962962963,0.03947368421052633
106,715.7604412923561,0.052631578947368474
107,715.7604412923561,0.046052631578947345
108,718.5579196217495,0.052631578947368474
109,721.3553979511425,0.046052631578947345
110,721.3553979511425,0.052631578947368474
111,724.152876280536,0.03947368421052633
112,724.152876280536,0.046052631578947345
113,726.950354609929,0.03947368421052633
114,729.7478329393225,0.03947368421052633
115,732.5453112687155,0.03289473684210531
116,732.5453112687155,0.03947368421052633
117,735.3427895981085,0.03289473684210531
118,738.140267927502,0.03289473684210531
119,740.937746256895,0.03289473684210531
120,740.937746256895,0.02631578947368418
121,743.7352245862885,0.02631578947368418
122,746.5327029156815,0.02631578947368418
123,749.330181245075,0.02631578947368418
124,752.127659574468,0.02631578947368418
125,754.9251379038615,0.02631578947368418
126,757.7226162332545,0.02631578947368418
127,757.7226162332545,0.019736842105263164
128,760.520094562648,0.019736842105263164
129,763.317572892041,0.019736842105263164
130,766.115051221434,0.019736842105263164
131,768.9125295508275,0.019736842105263164
132,771.7100078802205,0.019736842105263164
133,774.507486209614,0.019736842105263164
134,777.304964539007,0.019736842105263164
135,780.1024428684004,0.019736842105263164
136,782.8999211977934,0.019736842105263164
137,785.6973995271869,0.019736842105263164
138,788.4948778565799,0.019736842105263164
139,791.2923561859734,0.019736842105263164
140,794.0898345153664,0.019736842105263164
141,796.8873128447594,0.019736842105263164
142,799.6847911741529,0.019736842105263164
143,802.4822695035459,0.019736842105263164
144,805.2797478329394,0.019736842105263164
145,808.0772261623324,0.019736842105263164
146,810.8747044917259,0.019736842105263164
147,813.6721828211189,0.019736842105263164
148,816.4696611505124,0.019736842105263164
149,819.2671394799054,0.019736842105263164
150,822.0646178092989,0.019736842105263164
151,824.8620961386919,0.019736842105263164
152,827.6595744680849,0.019736842105263164
153,827.6595744680849,0.02631578947368418
154,830.4570527974784,0.02631578947368418
155,833.2545311268714,0.02631578947368418
156,836.0520094562648,0.02631578947368418
157,838.8494877856579,0.02631578947368418
158,841.6469661150513,0.02631578947368418
159,844.4444444444443,0.02631578947368418
160,847.2419227738378,0.02631578947368418
161,850.0394011032308,0.03289473684210531
162,850.0394011032308,0.02631578947368418
163,852.8368794326243,0.03289473684210531
164,855.6343577620173,0.03289473684210531
165,858.4318360914103,0.03289473684210531
166,861.2293144208038,0.03289473684210531
167,864.0267927501968,0.03289473684210531
168,866.8242710795903,0.03289473684210531
169,866.8242710795903,0.02631578947368418
170,869.6217494089833,0.02631578947368418
171,872.4192277383768,0.02631578947368418
172,875.2167060677698,0.02631578947368418
173,878.0141843971633,0.02631578947368418
174,880.8116627265563,0.02631578947368418
175,883.6091410559497,0.02631578947368418
176,886.4066193853428,0.02631578947368418
177,889.2040977147362,0.02631578947368418
178,892.0015760441293,0.02631578947368418
179,894.7990543735223,0.02631578947368418
180,897.5965327029157,0.02631578947368418
181,900.3940110323088,0.02631578947368418
182,903.1914893617022,0.02631578947368418
183,905.9889676910952,0.02631578947368418
184,908.7864460204887,0.02631578947368418
185,911.5839243498817,0.02631578947368418
186,911.5839243498817,0.03289473684210531
187,914.3814026792752,0.03289473684210531
188,917.1788810086682,0.03289473684210531
189,919.9763593380617,0.03289473684210531
190,922.7738376674547,0.03289473684210531
191,925.5713159968477,0.03289473684210531
192,928.3687943262412,0.03289473684210531
193,931.1662726556342,0.03289473684210531
194,931.1662726556342,0.03947368421052633
195,933.9637509850277,0.03947368421052633
196,936.7612293144207,0.03947368421052633
197,939.5587076438142,0.03947368421052633
198,942.3561859732072,0.03947368421052633
199,945.1536643026006,0.03947368421052633
200,947.9511426319937,0.03947368421052633
201,947.9511426319937,0.046052631578947345
202,950.7486209613871,0.03947368421052633
203,953.5460992907801,0.03947368421052633
204,956.3435776201732,0.03947368421052633
205,959.1410559495666,0.03947368421052633
206,961.9385342789597,0.03947368421052633
207,961.9385342789597,0.03289473684210531
208,964.7360126083531,0.03289473684210531
209,967.5334909377461,0.03289473684210531
210,970.3309692671396,0.03289473684210531
211,973.1284475965326,0.03289473684210531
212,975.9259259259261,0.03289473684210531
213,978.7234042553191,0.03289473684210531
214,981.5208825847126,0.03289473684210531
215,984.3183609141056,0.03289473684210531
216,987.1158392434986,0.03289473684210531
217,989.9133175728921,0.03289473684210531
218,992.7107959022851,0.03289473684210531
219,995.5082742316786,0.03289473684210531
220,998.3057525610716,0.03289473684210531
221,1001.103230890465,0.03289473684210531
222,1003.9007092198581,0.03289473684210531
223,1006.6981875492515,0.03289473684210531
224,1009.4956658786446,0.03289473684210531
225,1012.293144208038,0.03289473684210531
226,1015.090622537431,0.03289473684210531
227,1015.090622537431,0.03947368421052633
228,1017.8881008668241,0.03947368421052633
229,1020.6855791962175,0.03947368421052633
230,1023.4830575256105,0.046052631578947345
231,1023.4830575256105,0.03947368421052633
232,1026.280535855004,0.046052631578947345
233,1029.078014184397,0.046052631578947345
234,1029.078014184397,0.052631578947368474
235,1031.8754925137905,0.052631578947368474
236,1034.6729708431835,0.052631578947368474
237,1037.470449172577,0.05921052631578949
238,1037.470449172577,0.052631578947368474
239,1040.26792750197,0.05921052631578949
240,1043.0654058313635,0.05921052631578949
241,1045.8628841607565,0.05921052631578949
242,1048.6603624901495,0.052631578947368474
243,1048.6603624901495,0.05921052631578949
244,1051.457840819543,0.05921052631578949
245,1051.457840819543,0.052631578947368474
246,1054.255319148936,0.05921052631578949
247,1057.0527974783295,0.05921052631578949
248,1059.8502758077225,0.05921052631578949
249,1062.647754137116,0.06578947368421051
250,1062.647754137116,0.05921052631578949
251,1065.445232466509,0.06578947368421051
252,1068.2427107959024,0.06578947368421051
253,1068.2427107959024,0.07236842105263153
254,1071.0401891252955,0.07236842105263153
255,1073.837667454689,0.07894736842105265
256,1073.837667454689,0.07236842105263153
257,1076.635145784082,0.08552631578947367
258,1076.635145784082,0.07894736842105265
259,1079.432624113475,0.08552631578947367
260,1079.432624113475,0.09210526315789469
261,1082.2301024428684,0.09868421052631582
262,1082.2301024428684,0.09210526315789469
263,1085.0275807722614,0.11184210526315785
264,1085.0275807722614,0.10526315789473684
265,1085.0275807722614,0.09868421052631582
266,1087.825059101655,0.11184210526315785
267,1090.622537431048,0.11842105263157898
268,1090.622537431048,0.11184210526315785
269,1090.622537431048,0.125
270,1093.4200157604414,0.125
271,1093.4200157604414,0.13157894736842102
272,1096.2174940898344,0.13157894736842102
273,1096.2174940898344,0.14473684210526316
274,1096.2174940898344,0.13815789473684215
275,1099.014972419228,0.14473684210526316
276,1099.014972419228,0.15131578947368418
277,1101.812450748621,0.1578947368421053
278,1101.812450748621,0.15131578947368418
279,1104.6099290780144,0.1578947368421053
280,1104.6099290780144,0.16447368421052633
281,1107.4074074074074,0.16447368421052633
282,1110.2048857368004,0.16447368421052633
283,1110.2048857368004,0.17105263157894735
284,1113.0023640661939,0.17105263157894735
285,1115.799842395587,0.17105263157894735
286,1118.5973207249804,0.17105263157894735
287,1121.3947990543734,0.17105263157894735
288,1121.3947990543734,0.16447368421052633
289,1124.1922773837669,0.16447368421052633
290,1126.9897557131599,0.16447368421052633
291,1129.7872340425533,0.16447368421052633
292,1132.5847123719464,0.16447368421052633
293,1135.3821907013398,0.16447368421052633
294,1135.3821907013398,0.1578947368421053
295,1138.1796690307328,0.1578947368421053
296,1140.9771473601263,0.1578947368421053
297,1140.9771473601263,0.15131578947368418
298,1143.7746256895193,0.14473684210526316
299,1143.7746256895193,0.15131578947368418
300,1146.5721040189123,0.13815789473684215
301,1146.5721040189123,0.14473684210526316
302,1146.5721040189123,0.13157894736842102
303,1149.3695823483058,0.125
304,1149.3695823483058,0.13157894736842102
305,1152.1670606776988,0.125
306,1152.1670606776988,0.11842105263157898
307,1152.1670606776988,0.11184210526315785
308,1152.1670606776988,0.10526315789473684
309,1154.9645390070923,0.09868421052631582
310,1154.9645390070923,0.10526315789473684
311,1154.9645390070923,0.09210526315789469
312,1157.7620173364853,0.09210526315789469
313,1160.5594956658788,0.09210526315789469
314,1160.5594956658788,0.08552631578947367
315,1166.1544523246653,0.07894736842105265
316,1166.1544523246653,0.08552631578947367
317,1168.9519306540583,0.07894736842105265
318,1171.7494089834518,0.07894736842105265
319,1174.5468873128448,0.07894736842105265
320,1177.3443656422378,0.07236842105263153
321,1177.3443656422378,0.07894736842105265
322,1180.1418439716313,0.07236842105263153
323,1180.1418439716313,0.06578947368421051
324,1182.9393223010243,0.06578947368421051
325,1185.7368006304177,0.05921052631578949
326,1185.7368006304177,0.06578947368421051
327,1188.5342789598108,0.05921052631578949
328,1191.3317572892042,0.052631578947368474
329,1191.3317572892042,0.05921052631578949
330,1194.1292356185972,0.052631578947368474
331,1196.9267139479907,0.052631578947368474
332,1199.7241922773837,0.052631578947368474
333,1199.7241922773837,0.046052631578947345
334,1202.5216706067772,0.046052631578947345
335,1205.3191489361702,0.046052631578947345
336,1208.1166272655632,0.046052631578947345
337,1210.9141055949567,0.046052631578947345
338,1213.7115839243497,0.046052631578947345
339,1216.5090622537432,0.046052631578947345
340,1219.3065405831362,0.046052631578947345
341,1222.1040189125297,0.052631578947368474
342,1222.1040189125297,0.046052631578947345
343,1224.9014972419227,0.052631578947368474
344,1227.6989755713162,0.052631578947368474
345,1227.6989755713162,0.05921052631578949
346,1230.4964539007092,0.05921052631578949
347,1233.2939322301027,0.06578947368421051
348,1233.2939322301027,0.05921052631578949
349,1236.0914105594957,0.06578947368421051
350,1238.8888888888887,0.07236842105263153
351,1238.8888888888887,0.06578947368421051
352,1241.6863672182822,0.07236842105263153
353,1244.4838455476752,0.07236842105263153
354,1247.2813238770686,0.07236842105263153
355,1250.0788022064617,0.07236842105263153
356,1250.0788022064617,0.06578947368421051
357,1252.8762805358551,0.05921052631578949
358,1252.8762805358551,0.06578947368421051
359,1255.6737588652481,0.05921052631578949
360,1258.4712371946416,0.05921052631578949
361,1258.4712371946416,0.052631578947368474
362,1261.2687155240346,0.052631578947368474
363,1264.066193853428,0.052631578947368474
364,1266.8636721828211,0.052631578947368474
365,1269.6611505122141,0.052631578947368474
366,1272.4586288416076,0.052631578947368474
367,1275.2561071710006,0.05921052631578949
368,1275.2561071710006,0.052631578947368474
369,1278.053585500394,0.05921052631578949
370,1280.851063829787,0.05921052631578949
371,1283.6485421591806,0.05921052631578949
372,1286.4460204885736,0.05921052631578949
373,1289.243498817967,0.05921052631578949
374,1292.04097714736,0.05921052631578949
375,1294.8384554767536,0.05921052631578949
376,1297.6359338061466,0.05921052631578949
377,1300.4334121355396,0.05921052631578949
378,1303.230890464933,0.052631578947368474
379,1303.230890464933,0.05921052631578949
380,1306.028368794326,0.052631578947368474
381,1308.8258471237195,0.046052631578947345
382,1308.8258471237195,0.052631578947368474
383,1311.6233254531126,0.046052631578947345
384,1314.420803782506,0.046052631578947345
385,1317.218282111899,0.046052631578947345
386,1320.0157604412925,0.046052631578947345
387,1322.8132387706855,0.046052631578947345
388,1325.610717100079,0.03947368421052633
389,1325.610717100079,0.046052631578947345
390,1328.408195429472,0.03947368421052633
391,1331.205673758865,0.03947368421052633
392,1331.205673758865,0.046052631578947345
393,1334.0031520882585,0.046052631578947345
394,1336.8006304176515,0.046052631578947345
395,1336.8006304176515,0.052631578947368474
396,1339.598108747045,0.052631578947368474
397,1339.598108747045,0.05921052631578949
398,1342.395587076438,0.05921052631578949
399,1342.395587076438,0.06578947368421051
400,1345.1930654058315,0.06578947368421051
401,1347.9905437352245,0.06578947368421051
402,1350.788022064618,0.05921052631578949
403,1350.788022064618,0.06578947368421051
404,1353.585500394011,0.05921052631578949
405,1356.3829787234044,0.05921052631578949
406,1359.1804570527975,0.05921052631578949
407,1359.1804570527975,0.06578947368421051
408,1361.9779353821905,0.06578947368421051
409,1361.9779353821905,0.07236842105263153
410,1364.775413711584,0.06578947368421051
411,1364.775413711584,0.07236842105263153
412,1367.572892040977,0.06578947368421051
413,1367.572892040977,0.07236842105263153
414,1370.3703703703704,0.07236842105263153
415,1370.3703703703704,0.09868421052631582
416,1370.3703703703704,0.09210526315789469
417,1370.3703703703704,0.07894736842105265
418,1370.3703703703704,0.08552631578947367
419,1373.1678486997635,0.09868421052631582
420,1373.1678486997635,0.10526315789473684
421,1375.965327029157,0.09868421052631582
422,1375.965327029157,0.07894736842105265
423,1375.965327029157,0.09210526315789469
424,1375.965327029157,0.08552631578947367
425,1375.965327029157,0.10526315789473684
426,1378.76280535855,0.07236842105263153
427,1378.76280535855,0.07894736842105265
428,1381.5602836879434,0.07236842105263153
429,1381.5602836879434,0.06578947368421051
430,1381.5602836879434,0.05921052631578949
431,1384.3577620173364,0.046052631578947345
432,1384.3577620173364,0.05921052631578949
433,1384.3577620173364,0.052631578947368474
434,1387.15524034673,0.046052631578947345
435,1389.952718676123,0.03947368421052633
436,1389.952718676123,0.046052631578947345
437,1392.750197005516,0.03947368421052633
438,1395.5476753349094,0.03947368421052633
439,1398.3451536643024,0.03947368421052633
440,1401.1426319936959,0.03947368421052633
441,1403.940110323089,0.03947368421052633
442,1403.940110323089,0.03289473684210531
443,1406.7375886524824,0.03947368421052633
444,1406.7375886524824,0.03289473684210531
445,1409.5350669818754,0.03947368421052633
446,1412.3325453112689,0.03947368421052633
447,1415.1300236406619,0.03947368421052633
448,1417.9275019700553,0.03947368421052633
449,1420.7249802994484,0.046052631578947345
450,1420.7249802994484,0.03947368421052633
451,1423.5224586288418,0.046052631578947345
452,1426.3199369582348,0.052631578947368474
453,1426.3199369582348,0.046052631578947345
454,1426.3199369582348,0.05921052631578949
455,1429.1174152876279,0.06578947368421051
456,1429.1174152876279,0.05921052631578949
457,1431.9148936170213,0.07236842105263153
458,1431.9148936170213,0.07894736842105265
459,1431.9148936170213,0.06578947368421051
460,1434.7123719464144,0.07894736842105265
