,wavenumbers,absorbance
0,452.797478329393,0.11184210526315785
1,455.5949566587865,0.11184210526315785
2,458.3924349881795,0.11184210526315785
3,458.3924349881795,0.10526315789473684
4,458.3924349881795,0.09868421052631582
5,461.189913317573,0.09868421052631582
6,463.987391646966,0.09868421052631582
7,463.987391646966,0.09210526315789469
8,466.78486997635946,0.09210526315789469
9,469.5823483057525,0.09210526315789469
10,472.37982663514595,0.09210526315789469
11,475.17730496453896,0.09210526315789469
12,477.97478329393243,0.08552631578947367
13,477.97478329393243,0.09210526315789469
14,480.77226162332545,0.08552631578947367
15,483.56973995271846,0.08552631578947367
16,486.36721828211193,0.08552631578947367
17,486.36721828211193,0.07894736842105265
18,489.16469661150495,0.07894736842105265
19,491.9621749408984,0.07894736842105265
20,494.75965327029144,0.07894736842105265
21,497.5571315996849,0.07236842105263153
22,497.5571315996849,0.07894736842105265
23,500.3546099290779,0.07236842105263153
24,503.1520882584714,0.07236842105263153
25,505.9495665878644,0.07236842105263153
26,508.7470449172579,0.07236842105263153
27,511.5445232466509,0.07236842105263153
28,514.3420015760439,0.07236842105263153
29,517.1394799054374,0.07236842105263153
30,519.9369582348304,0.07236842105263153
31,519.9369582348304,0.06578947368421051
32,522.7344365642239,0.06578947368421051
33,525.5319148936169,0.06578947368421051
34,528.3293932230104,0.06578947368421051
35,531.1268715524034,0.06578947368421051
36,533.9243498817968,0.06578947368421051
37,536.7218282111899,0.06578947368421051
38,539.5193065405833,0.06578947368421051
39,542.3167848699763,0.06578947368421051
40,542.3167848699763,0.05921052631578949
41,545.1142631993694,0.05921052631578949
42,545.1142631993694,0.06578947368421051
43,547.9117415287628,0.05921052631578949
44,550.7092198581558,0.05921052631578949
45,550.7092198581558,0.06578947368421051
46,553.5066981875493,0.06578947368421051
47,556.3041765169423,0.06578947368421051
48,559.1016548463358,0.06578947368421051
49,561.8991331757288,0.06578947368421051
50,564.6966115051223,0.06578947368421051
51,567.4940898345153,0.06578947368421051
52,570.2915681639088,0.06578947368421051
53,573.0890464933018,0.06578947368421051
54,573.0890464933018,0.07236842105263153
55,575.8865248226948,0.07236842105263153
56,578.6840031520883,0.07236842105263153
57,581.4814814814813,0.07236842105263153
58,581.4814814814813,0.07894736842105265
59,584.2789598108748,0.07894736842105265
60,587.0764381402678,0.07894736842105265
61,589.8739164696613,0.07894736842105265
62,592.6713947990543,0.07236842105263153
63,592.6713947990543,0.07894736842105265
64,595.4688731284477,0.07236842105263153
65,598.2663514578408,0.07236842105263153
66,598.2663514578408,0.06578947368421051
67,601.0638297872342,0.06578947368421051
68,603.8613081166272,0.06578947368421051
69,603.8613081166272,0.05921052631578949
70,606.6587864460207,0.05921052631578949
71,609.4562647754137,0.05921052631578949
72,612.2537431048067,0.05921052631578949
73,615.0512214342002,0.052631578947368474
74,615.0512214342002,0.05921052631578949
75,617.8486997635932,0.052631578947368474
76,620.6461780929867,0.052631578947368474
77,623.4436564223797,0.052631578947368474
78,626.2411347517732,0.052631578947368474
79,629.0386130811662,0.052631578947368474
80,631.8360914105597,0.052631578947368474
81,634.6335697399527,0.052631578947368474
82,637.4310480693462,0.052631578947368474
83,640.2285263987392,0.052631578947368474
84,643.0260047281322,0.052631578947368474
85,645.8234830575257,0.052631578947368474
86,648.6209613869187,0.052631578947368474
87,651.4184397163122,0.052631578947368474
88,654.2159180457052,0.052631578947368474
89,657.0133963750986,0.052631578947368474
90,659.8108747044917,0.046052631578947345
91,659.8108747044917,0.052631578947368474
92,662.6083530338851,0.046052631578947345
93,665.4058313632781,0.046052631578947345
94,668.2033096926716,0.046052631578947345
95,671.0007880220646,0.046052631578947345
96,673.7982663514576,0.046052631578947345
97,676.5957446808511,0.046052631578947345
98,676.5957446808511,0.03947368421052633
99,679.3932230102441,0.03947368421052633
100,682.1907013396376,0.03947368421052633
101,684.9881796690306,0.03947368421052633
102,687.7856579984241,0.03947368421052633
103,690.5831363278171,0.03947368421052633
104,693.3806146572106,0.03947368421052633
105,693.3806146572106,0.046052631578947345
106,696.1780929866036,0.03947368421052633
107,696.1780929866036,0.046052631578947345
108,698.9755713159971,0.03947368421052633
109,701.7730496453901,0.03947368421052633
110,704.5705279747831,0.03947368421052633
111,707.3680063041766,0.03947368421052633
112,710.1654846335696,0.03947368421052633
113,712.962962962963,0.03947368421052633
114,715.7604412923561,0.03947368421052633
115,718.5579196217495,0.03947368421052633
116,721.3553979511425,0.03947368421052633
117,724.152876280536,0.03947368421052633
118,726.950354609929,0.03947368421052633
119,729.7478329393225,0.03947368421052633
120,732.5453112687155,0.03947368421052633
121,735.3427895981085,0.03947368421052633
122,738.140267927502,0.03947368421052633
123,740.937746256895,0.03947368421052633
124,743.7352245862885,0.03947368421052633
125,743.7352245862885,0.046052631578947345
126,746.5327029156815,0.046052631578947345
127,749.330181245075,0.046052631578947345
128,752.127659574468,0.046052631578947345
129,754.9251379038615,0.046052631578947345
130,757.7226162332545,0.03947368421052633
131,757.7226162332545,0.046052631578947345
132,760.520094562648,0.03947368421052633
133,763.317572892041,0.03947368421052633
134,766.115051221434,0.046052631578947345
135,766.115051221434,0.03947368421052633
136,768.9125295508275,0.046052631578947345
137,771.7100078802205,0.046052631578947345
138,774.507486209614,0.046052631578947345
139,777.304964539007,0.046052631578947345
140,780.1024428684004,0.052631578947368474
141,780.1024428684004,0.046052631578947345
142,782.8999211977934,0.052631578947368474
143,785.6973995271869,0.052631578947368474
144,788.4948778565799,0.052631578947368474
145,791.2923561859734,0.052631578947368474
146,794.0898345153664,0.052631578947368474
147,796.8873128447594,0.052631578947368474
148,799.6847911741529,0.052631578947368474
149,802.4822695035459,0.052631578947368474
150,805.2797478329394,0.052631578947368474
151,805.2797478329394,0.046052631578947345
152,808.0772261623324,0.046052631578947345
153,810.8747044917259,0.046052631578947345
154,813.6721828211189,0.046052631578947345
155,816.4696611505124,0.046052631578947345
156,819.2671394799054,0.046052631578947345
157,819.2671394799054,0.052631578947368474
158,822.0646178092989,0.052631578947368474
159,824.8620961386919,0.052631578947368474
160,827.6595744680849,0.052631578947368474
161,830.4570527974784,0.046052631578947345
162,830.4570527974784,0.052631578947368474
163,833.2545311268714,0.046052631578947345
164,836.0520094562648,0.052631578947368474
165,836.0520094562648,0.046052631578947345
166,838.8494877856579,0.052631578947368474
167,841.6469661150513,0.052631578947368474
168,844.4444444444443,0.052631578947368474
169,847.2419227738378,0.052631578947368474
170,850.0394011032308,0.052631578947368474
171,852.8368794326243,0.052631578947368474
172,855.6343577620173,0.052631578947368474
173,858.4318360914103,0.052631578947368474
174,861.2293144208038,0.052631578947368474
175,861.2293144208038,0.05921052631578949
176,864.0267927501968,0.05921052631578949
177,866.8242710795903,0.05921052631578949
178,866.8242710795903,0.06578947368421051
179,869.6217494089833,0.06578947368421051
180,872.4192277383768,0.06578947368421051
181,875.2167060677698,0.06578947368421051
182,875.2167060677698,0.07236842105263153
183,878.0141843971633,0.07236842105263153
184,880.8116627265563,0.07236842105263153
185,880.8116627265563,0.07894736842105265
186,883.6091410559497,0.07894736842105265
187,883.6091410559497,0.07236842105263153
188,886.4066193853428,0.07236842105263153
189,889.2040977147362,0.07236842105263153
190,892.0015760441293,0.07236842105263153
191,894.7990543735223,0.06578947368421051
192,894.7990543735223,0.07236842105263153
193,897.5965327029157,0.06578947368421051
194,900.3940110323088,0.06578947368421051
195,903.1914893617022,0.06578947368421051
196,905.9889676910952,0.06578947368421051
197,908.7864460204887,0.06578947368421051
198,911.5839243498817,0.06578947368421051
199,914.3814026792752,0.06578947368421051
200,917.1788810086682,0.06578947368421051
201,919.9763593380617,0.06578947368421051
202,919.9763593380617,0.07236842105263153
203,922.7738376674547,0.07236842105263153
204,925.5713159968477,0.07236842105263153
205,928.3687943262412,0.07236842105263153
206,931.1662726556342,0.07236842105263153
207,933.9637509850277,0.07236842105263153
208,936.7612293144207,0.07894736842105265
209,936.7612293144207,0.08552631578947367
210,936.7612293144207,0.07236842105263153
211,939.5587076438142,0.08552631578947367
212,942.3561859732072,0.08552631578947367
213,942.3561859732072,0.09868421052631582
214,942.3561859732072,0.09210526315789469
215,945.1536643026006,0.10526315789473684
216,945.1536643026006,0.09868421052631582
217,947.9511426319937,0.11842105263157898
218,947.9511426319937,0.11184210526315785
219,947.9511426319937,0.10526315789473684
220,950.7486209613871,0.11842105263157898
221,950.7486209613871,0.125
222,953.5460992907801,0.125
223,953.5460992907801,0.13157894736842102
224,956.3435776201732,0.13157894736842102
225,956.3435776201732,0.13815789473684215
226,959.1410559495666,0.13815789473684215
227,961.9385342789597,0.13815789473684215
228,964.7360126083531,0.13815789473684215
229,967.5334909377461,0.14473684210526316
230,967.5334909377461,0.13815789473684215
231,970.3309692671396,0.14473684210526316
232,970.3309692671396,0.15131578947368418
233,973.1284475965326,0.15131578947368418
234,975.9259259259261,0.15131578947368418
235,978.7234042553191,0.15131578947368418
236,981.5208825847126,0.15131578947368418
237,981.5208825847126,0.1578947368421053
238,984.3183609141056,0.1578947368421053
239,987.1158392434986,0.16447368421052633
240,987.1158392434986,0.17105263157894735
241,987.1158392434986,0.1578947368421053
242,989.9133175728921,0.17105263157894735
243,992.7107959022851,0.17105263157894735
244,995.5082742316786,0.17105263157894735
245,995.5082742316786,0.16447368421052633
246,998.3057525610716,0.15131578947368418
247,998.3057525610716,0.1578947368421053
248,998.3057525610716,0.16447368421052633
249,1001.103230890465,0.15131578947368418
250,1003.9007092198581,0.15131578947368418
251,1006.6981875492515,0.15131578947368418
252,1006.6981875492515,0.1578947368421053
253,1009.4956658786446,0.1578947368421053
254,1009.4956658786446,0.16447368421052633
255,1012.293144208038,0.16447368421052633
256,1012.293144208038,0.17105263157894735
257,1015.090622537431,0.17105263157894735
258,1017.8881008668241,0.17105263157894735
259,1020.6855791962175,0.17105263157894735
260,1023.4830575256105,0.17105263157894735
261,1023.4830575256105,0.17763157894736847
262,1026.280535855004,0.17763157894736847
263,1029.078014184397,0.17763157894736847
264,1031.8754925137905,0.17763157894736847
265,1031.8754925137905,0.1842105263157895
266,1034.6729708431835,0.17763157894736847
267,1034.6729708431835,0.1842105263157895
268,1037.470449172577,0.17105263157894735
269,1037.470449172577,0.17763157894736847
270,1040.26792750197,0.16447368421052633
271,1040.26792750197,0.1578947368421053
272,1040.26792750197,0.15131578947368418
273,1040.26792750197,0.17105263157894735
274,1043.0654058313635,0.15131578947368418
275,1043.0654058313635,0.14473684210526316
276,1045.8628841607565,0.14473684210526316
277,1048.6603624901495,0.14473684210526316
278,1051.457840819543,0.14473684210526316
279,1051.457840819543,0.15131578947368418
280,1054.255319148936,0.15131578947368418
281,1054.255319148936,0.1578947368421053
282,1057.0527974783295,0.1578947368421053
283,1059.8502758077225,0.15131578947368418
284,1059.8502758077225,0.1578947368421053
285,1062.647754137116,0.15131578947368418
286,1065.445232466509,0.15131578947368418
287,1065.445232466509,0.14473684210526316
288,1065.445232466509,0.13815789473684215
289,1068.2427107959024,0.13157894736842102
290,1068.2427107959024,0.13815789473684215
291,1071.0401891252955,0.125
292,1071.0401891252955,0.13157894736842102
293,1073.837667454689,0.11184210526315785
294,1073.837667454689,0.125
295,1073.837667454689,0.11842105263157898
296,1076.635145784082,0.11184210526315785
297,1076.635145784082,0.10526315789473684
298,1079.432624113475,0.10526315789473684
299,1082.2301024428684,0.10526315789473684
300,1085.0275807722614,0.11184210526315785
301,1085.0275807722614,0.10526315789473684
302,1087.825059101655,0.11184210526315785
303,1090.622537431048,0.11184210526315785
304,1090.622537431048,0.10526315789473684
305,1093.4200157604414,0.10526315789473684
306,1096.2174940898344,0.10526315789473684
307,1096.2174940898344,0.09868421052631582
308,1099.014972419228,0.09868421052631582
309,1101.812450748621,0.09868421052631582
310,1104.6099290780144,0.09868421052631582
311,1107.4074074074074,0.09868421052631582
312,1107.4074074074074,0.10526315789473684
313,1110.2048857368004,0.10526315789473684
314,1113.0023640661939,0.11184210526315785
315,1113.0023640661939,0.10526315789473684
316,1115.799842395587,0.11184210526315785
317,1115.799842395587,0.11842105263157898
318,1118.5973207249804,0.11842105263157898
319,1118.5973207249804,0.125
320,1121.3947990543734,0.14473684210526316
321,1121.3947990543734,0.13815789473684215
322,1121.3947990543734,0.13157894736842102
323,1121.3947990543734,0.125
324,1124.1922773837669,0.16447368421052633
325,1124.1922773837669,0.1578947368421053
326,1124.1922773837669,0.15131578947368418
327,1124.1922773837669,0.14473684210526316
328,1126.9897557131599,0.17105263157894735
329,1126.9897557131599,0.16447368421052633
330,1126.9897557131599,0.1842105263157895
331,1126.9897557131599,0.17763157894736847
332,1129.7872340425533,0.20394736842105265
333,1129.7872340425533,0.19736842105263153
334,1129.7872340425533,0.1907894736842105
335,1129.7872340425533,0.1842105263157895
336,1129.7872340425533,0.22368421052631582
337,1129.7872340425533,0.23026315789473684
338,1129.7872340425533,0.23684210526315785
339,1129.7872340425533,0.21052631578947367
340,1129.7872340425533,0.2171052631578947
341,1132.5847123719464,0.24342105263157898
342,1132.5847123719464,0.25
343,1132.5847123719464,0.256578947368421
344,1132.5847123719464,0.23684210526315785
345,1132.5847123719464,0.26315789473684215
346,1135.3821907013398,0.3157894736842105
347,1135.3821907013398,0.29605263157894735
348,1135.3821907013398,0.3223684210526315
349,1135.3821907013398,0.2763157894736842
350,1135.3821907013398,0.3092105263157895
351,1135.3821907013398,0.2894736842105263
352,1135.3821907013398,0.2828947368421053
353,1135.3821907013398,0.3026315789473685
354,1135.3821907013398,0.26315789473684215
355,1135.3821907013398,0.26973684210526316
356,1138.1796690307328,0.3355263157894737
357,1138.1796690307328,0.32894736842105265
358,1138.1796690307328,0.3223684210526315
359,1138.1796690307328,0.3421052631578947
360,1140.9771473601263,0.36184210526315785
361,1140.9771473601263,0.368421052631579
362,1140.9771473601263,0.35526315789473684
363,1140.9771473601263,0.3486842105263158
364,1140.9771473601263,0.375
365,1140.9771473601263,0.3421052631578947
366,1140.9771473601263,0.381578947368421
367,1143.7746256895193,0.381578947368421
368,1143.7746256895193,0.38815789473684215
369,1146.5721040189123,0.39473684210526316
370,1146.5721040189123,0.38815789473684215
371,1149.3695823483058,0.39473684210526316
372,1152.1670606776988,0.4013157894736842
373,1152.1670606776988,0.39473684210526316
374,1154.9645390070923,0.4013157894736842
375,1157.7620173364853,0.4013157894736842
376,1160.5594956658788,0.4078947368421053
377,1160.5594956658788,0.4013157894736842
378,1160.5594956658788,0.4144736842105263
379,1163.3569739952718,0.42105263157894735
380,1163.3569739952718,0.4144736842105263
381,1166.1544523246653,0.4342105263157895
382,1166.1544523246653,0.4276315789473685
383,1166.1544523246653,0.42105263157894735
384,1168.9519306540583,0.4342105263157895
385,1171.7494089834518,0.4342105263157895
386,1171.7494089834518,0.4276315789473685
387,1174.5468873128448,0.4276315789473685
388,1174.5468873128448,0.42105263157894735
389,1177.3443656422378,0.4144736842105263
390,1177.3443656422378,0.4078947368421053
391,1177.3443656422378,0.42105263157894735
392,1177.3443656422378,0.4013157894736842
393,1180.1418439716313,0.39473684210526316
394,1180.1418439716313,0.4013157894736842
395,1182.9393223010243,0.39473684210526316
396,1182.9393223010243,0.38815789473684215
397,1185.7368006304177,0.381578947368421
398,1185.7368006304177,0.375
399,1185.7368006304177,0.38815789473684215
400,1188.5342789598108,0.375
401,1188.5342789598108,0.368421052631579
402,1191.3317572892042,0.35526315789473684
403,1191.3317572892042,0.36184210526315785
404,1191.3317572892042,0.368421052631579
405,1194.1292356185972,0.35526315789473684
406,1194.1292356185972,0.3486842105263158
407,1196.9267139479907,0.3355263157894737
408,1196.9267139479907,0.32894736842105265
409,1196.9267139479907,0.3421052631578947
410,1196.9267139479907,0.3486842105263158
411,1199.7241922773837,0.3223684210526315
412,1199.7241922773837,0.32894736842105265
413,1202.5216706067772,0.3092105263157895
414,1202.5216706067772,0.3026315789473685
415,1202.5216706067772,0.3223684210526315
416,1202.5216706067772,0.3157894736842105
417,1205.3191489361702,0.29605263157894735
418,1205.3191489361702,0.3026315789473685
419,1205.3191489361702,0.2894736842105263
420,1208.1166272655632,0.2828947368421053
421,1208.1166272655632,0.2894736842105263
422,1210.9141055949567,0.2828947368421053
423,1213.7115839243497,0.2828947368421053
424,1213.7115839243497,0.2894736842105263
425,1216.5090622537432,0.29605263157894735
426,1216.5090622537432,0.2894736842105263
427,1219.3065405831362,0.2894736842105263
428,1222.1040189125297,0.2894736842105263
429,1224.9014972419227,0.2894736842105263
430,1227.6989755713162,0.3026315789473685
431,1227.6989755713162,0.29605263157894735
432,1227.6989755713162,0.2894736842105263
433,1230.4964539007092,0.3026315789473685
434,1233.2939322301027,0.3026315789473685
435,1233.2939322301027,0.3092105263157895
436,1236.0914105594957,0.3092105263157895
437,1238.8888888888887,0.3092105263157895
438,1241.6863672182822,0.3092105263157895
439,1244.4838455476752,0.3092105263157895
440,1244.4838455476752,0.3026315789473685
441,1247.2813238770686,0.3026315789473685
442,1250.0788022064617,0.3026315789473685
443,1252.8762805358551,0.2894736842105263
444,1252.8762805358551,0.3026315789473685
445,1252.8762805358551,0.29605263157894735
446,1255.6737588652481,0.2828947368421053
447,1255.6737588652481,0.2894736842105263
448,1258.4712371946416,0.2828947368421053
449,1258.4712371946416,0.2763157894736842
450,1258.4712371946416,0.26315789473684215
451,1258.4712371946416,0.26973684210526316
452,1261.2687155240346,0.256578947368421
453,1261.2687155240346,0.25
454,1261.2687155240346,0.26315789473684215
455,1264.066193853428,0.25
456,1264.066193853428,0.23026315789473684
457,1264.066193853428,0.24342105263157898
458,1264.066193853428,0.23684210526315785
459,1266.8636721828211,0.22368421052631582
460,1266.8636721828211,0.23026315789473684
461,1269.6611505122141,0.2171052631578947
462,1269.6611505122141,0.22368421052631582
463,1272.4586288416076,0.2171052631578947
464,1272.4586288416076,0.21052631578947367
465,1275.2561071710006,0.21052631578947367
466,1275.2561071710006,0.20394736842105265
