,wavenumbers,absorbance
0,452.797478329393,0.02631578947368418
1,452.797478329393,0.03289473684210531
2,455.5949566587865,0.02631578947368418
3,458.3924349881795,0.02631578947368418
4,458.3924349881795,0.019736842105263164
5,461.189913317573,0.019736842105263164
6,463.987391646966,0.019736842105263164
7,466.78486997635946,0.019736842105263164
8,469.5823483057525,0.019736842105263164
9,472.37982663514595,0.019736842105263164
10,475.17730496453896,0.019736842105263164
11,477.97478329393243,0.019736842105263164
12,480.77226162332545,0.019736842105263164
13,483.56973995271846,0.019736842105263164
14,486.36721828211193,0.019736842105263164
15,489.16469661150495,0.019736842105263164
16,491.9621749408984,0.019736842105263164
17,494.75965327029144,0.019736842105263164
18,497.5571315996849,0.019736842105263164
19,500.3546099290779,0.019736842105263164
20,500.3546099290779,0.02631578947368418
21,503.1520882584714,0.02631578947368418
22,505.9495665878644,0.02631578947368418
23,508.7470449172579,0.02631578947368418
24,511.5445232466509,0.02631578947368418
25,514.3420015760439,0.02631578947368418
26,517.1394799054374,0.019736842105263164
27,517.1394799054374,0.02631578947368418
28,519.9369582348304,0.019736842105263164
29,522.7344365642239,0.019736842105263164
30,525.5319148936169,0.019736842105263164
31,528.3293932230104,0.019736842105263164
32,531.1268715524034,0.019736842105263164
33,533.9243498817968,0.013157894736842146
34,533.9243498817968,0.019736842105263164
35,536.7218282111899,0.019736842105263164
36,539.5193065405833,0.019736842105263164
37,542.3167848699763,0.019736842105263164
38,545.1142631993694,0.019736842105263164
39,545.1142631993694,0.02631578947368418
40,547.9117415287628,0.02631578947368418
41,550.7092198581558,0.03289473684210531
42,550.7092198581558,0.02631578947368418
43,553.5066981875493,0.03289473684210531
44,556.3041765169423,0.03947368421052633
45,556.3041765169423,0.03289473684210531
46,559.1016548463358,0.03947368421052633
47,559.1016548463358,0.046052631578947345
48,561.8991331757288,0.046052631578947345
49,564.6966115051223,0.046052631578947345
50,564.6966115051223,0.052631578947368474
51,564.6966115051223,0.05921052631578949
52,567.4940898345153,0.05921052631578949
53,570.2915681639088,0.05921052631578949
54,570.2915681639088,0.06578947368421051
55,573.0890464933018,0.07236842105263153
56,573.0890464933018,0.06578947368421051
57,575.8865248226948,0.08552631578947367
58,575.8865248226948,0.07894736842105265
59,575.8865248226948,0.07236842105263153
60,578.6840031520883,0.08552631578947367
61,578.6840031520883,0.09210526315789469
62,581.4814814814813,0.09868421052631582
63,581.4814814814813,0.09210526315789469
64,584.2789598108748,0.10526315789473684
65,584.2789598108748,0.09868421052631582
66,587.0764381402678,0.10526315789473684
67,589.8739164696613,0.10526315789473684
68,589.8739164696613,0.09868421052631582
69,592.6713947990543,0.09868421052631582
70,595.4688731284477,0.09210526315789469
71,595.4688731284477,0.09868421052631582
72,598.2663514578408,0.09210526315789469
73,601.0638297872342,0.09210526315789469
74,601.0638297872342,0.08552631578947367
75,603.8613081166272,0.08552631578947367
76,606.6587864460207,0.07894736842105265
77,606.6587864460207,0.08552631578947367
78,606.6587864460207,0.07236842105263153
79,609.4562647754137,0.07236842105263153
80,612.2537431048067,0.07236842105263153
81,612.2537431048067,0.06578947368421051
82,615.0512214342002,0.06578947368421051
83,617.8486997635932,0.06578947368421051
84,617.8486997635932,0.05921052631578949
85,620.6461780929867,0.05921052631578949
86,623.4436564223797,0.052631578947368474
87,623.4436564223797,0.05921052631578949
88,626.2411347517732,0.052631578947368474
89,629.0386130811662,0.052631578947368474
90,631.8360914105597,0.046052631578947345
91,631.8360914105597,0.052631578947368474
92,634.6335697399527,0.046052631578947345
93,637.4310480693462,0.046052631578947345
94,640.2285263987392,0.046052631578947345
95,643.0260047281322,0.052631578947368474
96,643.0260047281322,0.046052631578947345
97,645.8234830575257,0.052631578947368474
98,648.6209613869187,0.052631578947368474
99,651.4184397163122,0.052631578947368474
100,651.4184397163122,0.046052631578947345
101,654.2159180457052,0.046052631578947345
102,657.0133963750986,0.046052631578947345
103,659.8108747044917,0.046052631578947345
104,662.6083530338851,0.046052631578947345
105,665.4058313632781,0.046052631578947345
106,668.2033096926716,0.046052631578947345
107,668.2033096926716,0.052631578947368474
108,671.0007880220646,0.052631578947368474
109,673.7982663514576,0.052631578947368474
110,676.5957446808511,0.052631578947368474
111,679.3932230102441,0.052631578947368474
112,682.1907013396376,0.052631578947368474
113,682.1907013396376,0.05921052631578949
114,684.9881796690306,0.05921052631578949
115,687.7856579984241,0.06578947368421051
116,687.7856579984241,0.05921052631578949
117,690.5831363278171,0.06578947368421051
118,693.3806146572106,0.06578947368421051
119,693.3806146572106,0.05921052631578949
120,696.1780929866036,0.05921052631578949
121,698.9755713159971,0.06578947368421051
122,698.9755713159971,0.05921052631578949
123,701.7730496453901,0.06578947368421051
124,704.5705279747831,0.06578947368421051
125,707.3680063041766,0.06578947368421051
126,707.3680063041766,0.07236842105263153
127,710.1654846335696,0.07236842105263153
128,710.1654846335696,0.07894736842105265
129,712.962962962963,0.08552631578947367
130,712.962962962963,0.07894736842105265
131,715.7604412923561,0.09210526315789469
132,715.7604412923561,0.08552631578947367
133,718.5579196217495,0.09210526315789469
134,721.3553979511425,0.08552631578947367
135,721.3553979511425,0.09210526315789469
136,724.152876280536,0.07894736842105265
137,724.152876280536,0.08552631578947367
138,726.950354609929,0.07894736842105265
139,726.950354609929,0.07236842105263153
140,729.7478329393225,0.07236842105263153
141,732.5453112687155,0.06578947368421051
142,732.5453112687155,0.07236842105263153
143,735.3427895981085,0.06578947368421051
144,735.3427895981085,0.05921052631578949
145,738.140267927502,0.05921052631578949
146,740.937746256895,0.05921052631578949
147,740.937746256895,0.052631578947368474
148,743.7352245862885,0.052631578947368474
149,746.5327029156815,0.052631578947368474
150,749.330181245075,0.052631578947368474
151,752.127659574468,0.05921052631578949
152,752.127659574468,0.052631578947368474
153,754.9251379038615,0.05921052631578949
154,757.7226162332545,0.05921052631578949
155,757.7226162332545,0.06578947368421051
156,760.520094562648,0.07236842105263153
157,760.520094562648,0.06578947368421051
158,763.317572892041,0.07236842105263153
159,763.317572892041,0.07894736842105265
160,766.115051221434,0.07894736842105265
161,768.9125295508275,0.07894736842105265
162,771.7100078802205,0.07894736842105265
163,774.507486209614,0.07894736842105265
164,777.304964539007,0.07894736842105265
165,780.1024428684004,0.07894736842105265
166,780.1024428684004,0.07236842105263153
167,782.8999211977934,0.07236842105263153
168,785.6973995271869,0.07236842105263153
169,788.4948778565799,0.06578947368421051
170,788.4948778565799,0.07236842105263153
171,791.2923561859734,0.06578947368421051
172,791.2923561859734,0.05921052631578949
173,794.0898345153664,0.05921052631578949
174,796.8873128447594,0.05921052631578949
175,796.8873128447594,0.06578947368421051
176,799.6847911741529,0.06578947368421051
177,799.6847911741529,0.07236842105263153
178,799.6847911741529,0.07894736842105265
179,802.4822695035459,0.07894736842105265
180,802.4822695035459,0.09868421052631582
181,802.4822695035459,0.09210526315789469
182,802.4822695035459,0.08552631578947367
183,805.2797478329394,0.10526315789473684
184,805.2797478329394,0.11184210526315785
185,805.2797478329394,0.11842105263157898
186,805.2797478329394,0.13157894736842102
187,805.2797478329394,0.125
188,805.2797478329394,0.13815789473684215
189,805.2797478329394,0.09868421052631582
190,808.0772261623324,0.13815789473684215
191,808.0772261623324,0.14473684210526316
192,808.0772261623324,0.1578947368421053
193,808.0772261623324,0.15131578947368418
194,810.8747044917259,0.16447368421052633
195,810.8747044917259,0.1578947368421053
196,810.8747044917259,0.17105263157894735
197,813.6721828211189,0.16447368421052633
198,813.6721828211189,0.17105263157894735
199,816.4696611505124,0.16447368421052633
200,816.4696611505124,0.1578947368421053
201,819.2671394799054,0.1578947368421053
202,819.2671394799054,0.13157894736842102
203,819.2671394799054,0.125
204,819.2671394799054,0.13815789473684215
205,819.2671394799054,0.11842105263157898
206,819.2671394799054,0.15131578947368418
207,819.2671394799054,0.14473684210526316
208,822.0646178092989,0.10526315789473684
209,822.0646178092989,0.09868421052631582
210,822.0646178092989,0.11184210526315785
211,822.0646178092989,0.11842105263157898
212,824.8620961386919,0.09210526315789469
213,824.8620961386919,0.07236842105263153
214,824.8620961386919,0.08552631578947367
215,824.8620961386919,0.07894736842105265
216,824.8620961386919,0.09868421052631582
217,827.6595744680849,0.06578947368421051
218,827.6595744680849,0.05921052631578949
219,827.6595744680849,0.07236842105263153
220,830.4570527974784,0.046052631578947345
221,830.4570527974784,0.052631578947368474
222,830.4570527974784,0.05921052631578949
223,833.2545311268714,0.046052631578947345
224,833.2545311268714,0.03947368421052633
225,836.0520094562648,0.03947368421052633
226,836.0520094562648,0.03289473684210531
227,838.8494877856579,0.03289473684210531
228,841.6469661150513,0.03289473684210531
229,841.6469661150513,0.02631578947368418
230,844.4444444444443,0.02631578947368418
231,847.2419227738378,0.02631578947368418
232,850.0394011032308,0.02631578947368418
233,852.8368794326243,0.02631578947368418
234,855.6343577620173,0.02631578947368418
235,858.4318360914103,0.02631578947368418
236,861.2293144208038,0.02631578947368418
237,861.2293144208038,0.019736842105263164
238,864.0267927501968,0.019736842105263164
239,866.8242710795903,0.019736842105263164
240,869.6217494089833,0.019736842105263164
241,872.4192277383768,0.019736842105263164
242,875.2167060677698,0.019736842105263164
243,878.0141843971633,0.019736842105263164
244,880.8116627265563,0.019736842105263164
245,883.6091410559497,0.019736842105263164
246,886.4066193853428,0.019736842105263164
247,889.2040977147362,0.019736842105263164
248,892.0015760441293,0.019736842105263164
249,894.7990543735223,0.019736842105263164
250,897.5965327029157,0.02631578947368418
251,897.5965327029157,0.019736842105263164
252,900.3940110323088,0.02631578947368418
253,903.1914893617022,0.02631578947368418
254,905.9889676910952,0.02631578947368418
255,905.9889676910952,0.03289473684210531
256,908.7864460204887,0.03289473684210531
257,911.5839243498817,0.03289473684210531
258,914.3814026792752,0.03289473684210531
259,917.1788810086682,0.03289473684210531
260,919.9763593380617,0.03289473684210531
261,922.7738376674547,0.03289473684210531
262,925.5713159968477,0.03289473684210531
263,928.3687943262412,0.03289473684210531
264,931.1662726556342,0.03289473684210531
265,933.9637509850277,0.03289473684210531
266,936.7612293144207,0.03289473684210531
267,939.5587076438142,0.03289473684210531
268,942.3561859732072,0.03289473684210531
269,945.1536643026006,0.03289473684210531
270,947.9511426319937,0.03289473684210531
271,950.7486209613871,0.03947368421052633
272,950.7486209613871,0.03289473684210531
273,953.5460992907801,0.03947368421052633
274,956.3435776201732,0.03947368421052633
275,959.1410559495666,0.03947368421052633
276,961.9385342789597,0.03947368421052633
277,961.9385342789597,0.046052631578947345
278,964.7360126083531,0.046052631578947345
279,967.5334909377461,0.046052631578947345
280,970.3309692671396,0.046052631578947345
281,973.1284475965326,0.046052631578947345
282,975.9259259259261,0.046052631578947345
283,978.7234042553191,0.046052631578947345
284,978.7234042553191,0.052631578947368474
285,981.5208825847126,0.052631578947368474
286,984.3183609141056,0.052631578947368474
287,984.3183609141056,0.05921052631578949
288,987.1158392434986,0.06578947368421051
289,987.1158392434986,0.05921052631578949
290,989.9133175728921,0.06578947368421051
291,989.9133175728921,0.07236842105263153
292,992.7107959022851,0.07894736842105265
293,992.7107959022851,0.07236842105263153
294,995.5082742316786,0.08552631578947367
295,995.5082742316786,0.09210526315789469
296,995.5082742316786,0.07894736842105265
297,998.3057525610716,0.09210526315789469
298,998.3057525610716,0.09868421052631582
299,1001.103230890465,0.09868421052631582
300,1003.9007092198581,0.10526315789473684
301,1003.9007092198581,0.09868421052631582
302,1006.6981875492515,0.09868421052631582
303,1009.4956658786446,0.09868421052631582
304,1009.4956658786446,0.09210526315789469
305,1009.4956658786446,0.08552631578947367
306,1012.293144208038,0.08552631578947367
307,1015.090622537431,0.08552631578947367
308,1015.090622537431,0.07894736842105265
309,1017.8881008668241,0.07894736842105265
310,1020.6855791962175,0.07894736842105265
311,1023.4830575256105,0.08552631578947367
312,1023.4830575256105,0.07894736842105265
313,1026.280535855004,0.08552631578947367
314,1029.078014184397,0.09210526315789469
315,1029.078014184397,0.08552631578947367
316,1031.8754925137905,0.09210526315789469
317,1034.6729708431835,0.09210526315789469
318,1037.470449172577,0.09210526315789469
319,1040.26792750197,0.09210526315789469
320,1040.26792750197,0.09868421052631582
321,1043.0654058313635,0.09868421052631582
322,1043.0654058313635,0.10526315789473684
323,1045.8628841607565,0.10526315789473684
324,1048.6603624901495,0.10526315789473684
325,1051.457840819543,0.10526315789473684
326,1054.255319148936,0.10526315789473684
327,1057.0527974783295,0.10526315789473684
328,1059.8502758077225,0.10526315789473684
329,1062.647754137116,0.10526315789473684
330,1065.445232466509,0.10526315789473684
331,1068.2427107959024,0.10526315789473684
332,1071.0401891252955,0.10526315789473684
333,1073.837667454689,0.10526315789473684
334,1076.635145784082,0.10526315789473684
335,1079.432624113475,0.11184210526315785
336,1079.432624113475,0.10526315789473684
337,1082.2301024428684,0.11184210526315785
338,1085.0275807722614,0.11842105263157898
339,1085.0275807722614,0.11184210526315785
340,1085.0275807722614,0.125
341,1087.825059101655,0.125
342,1090.622537431048,0.125
343,1090.622537431048,0.13815789473684215
344,1090.622537431048,0.13157894736842102
345,1093.4200157604414,0.13815789473684215
346,1096.2174940898344,0.14473684210526316
347,1096.2174940898344,0.15131578947368418
348,1096.2174940898344,0.13815789473684215
349,1099.014972419228,0.15131578947368418
350,1099.014972419228,0.1578947368421053
351,1101.812450748621,0.16447368421052633
352,1101.812450748621,0.1578947368421053
353,1104.6099290780144,0.16447368421052633
354,1104.6099290780144,0.17763157894736847
355,1104.6099290780144,0.17105263157894735
356,1107.4074074074074,0.17763157894736847
357,1107.4074074074074,0.1842105263157895
358,1110.2048857368004,0.19736842105263153
359,1110.2048857368004,0.1842105263157895
360,1110.2048857368004,0.1907894736842105
361,1113.0023640661939,0.19736842105263153
362,1115.799842395587,0.20394736842105265
363,1115.799842395587,0.19736842105263153
364,1118.5973207249804,0.21052631578947367
365,1118.5973207249804,0.20394736842105265
366,1121.3947990543734,0.21052631578947367
367,1124.1922773837669,0.2171052631578947
368,1124.1922773837669,0.21052631578947367
369,1126.9897557131599,0.21052631578947367
370,1126.9897557131599,0.2171052631578947
371,1129.7872340425533,0.20394736842105265
372,1129.7872340425533,0.21052631578947367
373,1132.5847123719464,0.20394736842105265
374,1135.3821907013398,0.20394736842105265
375,1138.1796690307328,0.20394736842105265
376,1140.9771473601263,0.20394736842105265
377,1143.7746256895193,0.20394736842105265
378,1146.5721040189123,0.20394736842105265
379,1149.3695823483058,0.20394736842105265
380,1152.1670606776988,0.19736842105263153
381,1152.1670606776988,0.20394736842105265
382,1154.9645390070923,0.19736842105263153
383,1157.7620173364853,0.19736842105263153
384,1157.7620173364853,0.1907894736842105
385,1160.5594956658788,0.17763157894736847
386,1160.5594956658788,0.1907894736842105
387,1160.5594956658788,0.1842105263157895
388,1163.3569739952718,0.17763157894736847
389,1163.3569739952718,0.17105263157894735
390,1166.1544523246653,0.17105263157894735
391,1166.1544523246653,0.16447368421052633
392,1166.1544523246653,0.1578947368421053
393,1168.9519306540583,0.15131578947368418
394,1168.9519306540583,0.1578947368421053
395,1171.7494089834518,0.15131578947368418
396,1174.5468873128448,0.15131578947368418
397,1177.3443656422378,0.15131578947368418
398,1180.1418439716313,0.15131578947368418
399,1182.9393223010243,0.15131578947368418
400,1185.7368006304177,0.1578947368421053
401,1185.7368006304177,0.15131578947368418
402,1188.5342789598108,0.1578947368421053
403,1191.3317572892042,0.1578947368421053
404,1194.1292356185972,0.1578947368421053
405,1196.9267139479907,0.15131578947368418
406,1196.9267139479907,0.1578947368421053
407,1199.7241922773837,0.15131578947368418
408,1202.5216706067772,0.15131578947368418
409,1205.3191489361702,0.15131578947368418
410,1208.1166272655632,0.15131578947368418
411,1208.1166272655632,0.1578947368421053
412,1210.9141055949567,0.1578947368421053
413,1210.9141055949567,0.16447368421052633
414,1213.7115839243497,0.16447368421052633
415,1216.5090622537432,0.17763157894736847
416,1216.5090622537432,0.16447368421052633
417,1216.5090622537432,0.17105263157894735
418,1219.3065405831362,0.1842105263157895
419,1219.3065405831362,0.17763157894736847
420,1222.1040189125297,0.1907894736842105
421,1222.1040189125297,0.1842105263157895
422,1224.9014972419227,0.1907894736842105
423,1224.9014972419227,0.19736842105263153
424,1227.6989755713162,0.21052631578947367
425,1227.6989755713162,0.20394736842105265
426,1227.6989755713162,0.19736842105263153
427,1230.4964539007092,0.21052631578947367
428,1230.4964539007092,0.2171052631578947
429,1233.2939322301027,0.2171052631578947
430,1233.2939322301027,0.23026315789473684
431,1233.2939322301027,0.22368421052631582
432,1236.0914105594957,0.23684210526315785
433,1236.0914105594957,0.23026315789473684
434,1238.8888888888887,0.25
435,1238.8888888888887,0.23684210526315785
436,1238.8888888888887,0.24342105263157898
437,1241.6863672182822,0.26315789473684215
438,1241.6863672182822,0.256578947368421
439,1241.6863672182822,0.25
440,1244.4838455476752,0.26315789473684215
441,1244.4838455476752,0.26973684210526316
442,1247.2813238770686,0.26973684210526316
443,1247.2813238770686,0.29605263157894735
444,1247.2813238770686,0.2763157894736842
445,1247.2813238770686,0.2828947368421053
446,1247.2813238770686,0.2894736842105263
447,1250.0788022064617,0.29605263157894735
448,1250.0788022064617,0.3092105263157895
449,1250.0788022064617,0.3026315789473685
450,1252.8762805358551,0.3355263157894737
451,1252.8762805358551,0.3092105263157895
452,1252.8762805358551,0.3157894736842105
453,1252.8762805358551,0.32894736842105265
454,1252.8762805358551,0.3223684210526315
455,1255.6737588652481,0.3355263157894737
456,1255.6737588652481,0.3421052631578947
457,1255.6737588652481,0.3486842105263158
458,1258.4712371946416,0.375
459,1258.4712371946416,0.35526315789473684
460,1258.4712371946416,0.368421052631579
461,1258.4712371946416,0.36184210526315785
462,1258.4712371946416,0.3486842105263158
463,1261.2687155240346,0.38815789473684215
464,1261.2687155240346,0.375
465,1261.2687155240346,0.381578947368421
