,wavenumbers,absorbance
0,452.797478329393,0.02631578947368418
1,452.797478329393,0.019736842105263164
2,455.5949566587865,0.019736842105263164
3,458.3924349881795,0.02631578947368418
4,458.3924349881795,0.019736842105263164
5,461.189913317573,0.02631578947368418
6,463.987391646966,0.03289473684210531
7,463.987391646966,0.02631578947368418
8,466.78486997635946,0.02631578947368418
9,469.5823483057525,0.02631578947368418
10,469.5823483057525,0.03289473684210531
11,472.37982663514595,0.02631578947368418
12,475.17730496453896,0.02631578947368418
13,477.97478329393243,0.02631578947368418
14,477.97478329393243,0.03289473684210531
15,480.77226162332545,0.03289473684210531
16,483.56973995271846,0.03289473684210531
17,486.36721828211193,0.03947368421052633
18,486.36721828211193,0.03289473684210531
19,489.16469661150495,0.03947368421052633
20,491.9621749408984,0.03947368421052633
21,494.75965327029144,0.03947368421052633
22,497.5571315996849,0.03947368421052633
23,500.3546099290779,0.03947368421052633
24,503.1520882584714,0.03947368421052633
25,505.9495665878644,0.03947368421052633
26,508.7470449172579,0.03947368421052633
27,511.5445232466509,0.03947368421052633
28,514.3420015760439,0.03947368421052633
29,517.1394799054374,0.03947368421052633
30,519.9369582348304,0.03289473684210531
31,519.9369582348304,0.03947368421052633
32,522.7344365642239,0.03289473684210531
33,522.7344365642239,0.03947368421052633
34,525.5319148936169,0.03289473684210531
35,525.5319148936169,0.03947368421052633
36,528.3293932230104,0.03289473684210531
37,531.1268715524034,0.03289473684210531
38,533.9243498817968,0.03289473684210531
39,536.7218282111899,0.03289473684210531
40,539.5193065405833,0.03289473684210531
41,542.3167848699763,0.03289473684210531
42,545.1142631993694,0.03289473684210531
43,547.9117415287628,0.03289473684210531
44,550.7092198581558,0.03289473684210531
45,553.5066981875493,0.03289473684210531
46,556.3041765169423,0.03289473684210531
47,559.1016548463358,0.02631578947368418
48,559.1016548463358,0.03289473684210531
49,561.8991331757288,0.02631578947368418
50,564.6966115051223,0.02631578947368418
51,567.4940898345153,0.02631578947368418
52,570.2915681639088,0.02631578947368418
53,573.0890464933018,0.02631578947368418
54,575.8865248226948,0.02631578947368418
55,575.8865248226948,0.019736842105263164
56,578.6840031520883,0.019736842105263164
57,581.4814814814813,0.019736842105263164
58,584.2789598108748,0.019736842105263164
59,587.0764381402678,0.019736842105263164
60,589.8739164696613,0.019736842105263164
61,592.6713947990543,0.019736842105263164
62,595.4688731284477,0.019736842105263164
63,598.2663514578408,0.02631578947368418
64,598.2663514578408,0.019736842105263164
65,601.0638297872342,0.02631578947368418
66,603.8613081166272,0.02631578947368418
67,606.6587864460207,0.019736842105263164
68,606.6587864460207,0.02631578947368418
69,609.4562647754137,0.019736842105263164
70,612.2537431048067,0.019736842105263164
71,615.0512214342002,0.019736842105263164
72,617.8486997635932,0.019736842105263164
73,620.6461780929867,0.019736842105263164
74,623.4436564223797,0.019736842105263164
75,626.2411347517732,0.019736842105263164
76,629.0386130811662,0.019736842105263164
77,631.8360914105597,0.019736842105263164
78,634.6335697399527,0.019736842105263164
79,637.4310480693462,0.019736842105263164
80,637.4310480693462,0.02631578947368418
81,640.2285263987392,0.02631578947368418
82,643.0260047281322,0.02631578947368418
83,643.0260047281322,0.019736842105263164
84,645.8234830575257,0.02631578947368418
85,645.8234830575257,0.019736842105263164
86,648.6209613869187,0.02631578947368418
87,651.4184397163122,0.02631578947368418
88,651.4184397163122,0.03289473684210531
89,654.2159180457052,0.03289473684210531
90,654.2159180457052,0.03947368421052633
91,654.2159180457052,0.046052631578947345
92,657.0133963750986,0.052631578947368474
93,657.0133963750986,0.05921052631578949
94,657.0133963750986,0.046052631578947345
95,659.8108747044917,0.05921052631578949
96,662.6083530338851,0.05921052631578949
97,662.6083530338851,0.06578947368421051
98,665.4058313632781,0.06578947368421051
99,668.2033096926716,0.06578947368421051
100,671.0007880220646,0.06578947368421051
101,673.7982663514576,0.06578947368421051
102,673.7982663514576,0.07236842105263153
103,676.5957446808511,0.07236842105263153
104,676.5957446808511,0.07894736842105265
105,679.3932230102441,0.08552631578947367
106,679.3932230102441,0.07894736842105265
107,682.1907013396376,0.09210526315789469
108,682.1907013396376,0.08552631578947367
109,684.9881796690306,0.09210526315789469
110,687.7856579984241,0.08552631578947367
111,687.7856579984241,0.09210526315789469
112,690.5831363278171,0.09210526315789469
113,690.5831363278171,0.08552631578947367
114,693.3806146572106,0.09210526315789469
115,696.1780929866036,0.09210526315789469
116,698.9755713159971,0.09210526315789469
117,701.7730496453901,0.09210526315789469
118,701.7730496453901,0.08552631578947367
119,704.5705279747831,0.07894736842105265
120,704.5705279747831,0.08552631578947367
121,707.3680063041766,0.07236842105263153
122,707.3680063041766,0.05921052631578949
123,707.3680063041766,0.06578947368421051
124,707.3680063041766,0.07894736842105265
125,710.1654846335696,0.052631578947368474
126,710.1654846335696,0.05921052631578949
127,710.1654846335696,0.046052631578947345
128,712.962962962963,0.046052631578947345
129,712.962962962963,0.03947368421052633
130,715.7604412923561,0.03947368421052633
131,715.7604412923561,0.03289473684210531
132,718.5579196217495,0.03289473684210531
133,721.3553979511425,0.03289473684210531
134,724.152876280536,0.03947368421052633
135,724.152876280536,0.03289473684210531
136,726.950354609929,0.03947368421052633
137,729.7478329393225,0.03947368421052633
138,729.7478329393225,0.046052631578947345
139,732.5453112687155,0.052631578947368474
140,732.5453112687155,0.046052631578947345
141,735.3427895981085,0.05921052631578949
142,735.3427895981085,0.052631578947368474
143,738.140267927502,0.06578947368421051
144,738.140267927502,0.05921052631578949
145,740.937746256895,0.06578947368421051
146,740.937746256895,0.07236842105263153
147,743.7352245862885,0.08552631578947367
148,743.7352245862885,0.07894736842105265
149,743.7352245862885,0.07236842105263153
150,746.5327029156815,0.08552631578947367
151,746.5327029156815,0.09210526315789469
152,746.5327029156815,0.09868421052631582
153,749.330181245075,0.11184210526315785
154,749.330181245075,0.09868421052631582
155,749.330181245075,0.10526315789473684
156,752.127659574468,0.11184210526315785
157,752.127659574468,0.10526315789473684
158,754.9251379038615,0.09868421052631582
159,754.9251379038615,0.10526315789473684
160,757.7226162332545,0.09868421052631582
161,760.520094562648,0.09868421052631582
162,763.317572892041,0.11842105263157898
163,763.317572892041,0.10526315789473684
164,763.317572892041,0.09868421052631582
165,763.317572892041,0.11184210526315785
166,766.115051221434,0.125
167,766.115051221434,0.13157894736842102
168,766.115051221434,0.11842105263157898
169,768.9125295508275,0.13815789473684215
170,768.9125295508275,0.16447368421052633
171,768.9125295508275,0.17105263157894735
172,768.9125295508275,0.15131578947368418
173,768.9125295508275,0.17763157894736847
174,768.9125295508275,0.13157894736842102
175,768.9125295508275,0.14473684210526316
176,768.9125295508275,0.1578947368421053
177,771.7100078802205,0.20394736842105265
178,771.7100078802205,0.1907894736842105
179,771.7100078802205,0.19736842105263153
180,771.7100078802205,0.17763157894736847
181,771.7100078802205,0.1842105263157895
182,774.507486209614,0.20394736842105265
183,774.507486209614,0.22368421052631582
184,774.507486209614,0.2171052631578947
185,774.507486209614,0.25
186,774.507486209614,0.24342105263157898
187,774.507486209614,0.23026315789473684
188,774.507486209614,0.256578947368421
189,774.507486209614,0.26315789473684215
190,774.507486209614,0.23684210526315785
191,774.507486209614,0.21052631578947367
192,777.304964539007,0.26315789473684215
193,777.304964539007,0.2828947368421053
194,777.304964539007,0.2894736842105263
195,777.304964539007,0.26973684210526316
196,777.304964539007,0.2763157894736842
197,777.304964539007,0.3026315789473685
198,777.304964539007,0.29605263157894735
199,780.1024428684004,0.32894736842105265
200,780.1024428684004,0.381578947368421
201,780.1024428684004,0.36184210526315785
202,780.1024428684004,0.4078947368421053
203,780.1024428684004,0.4013157894736842
204,780.1024428684004,0.39473684210526316
205,780.1024428684004,0.368421052631579
206,780.1024428684004,0.3355263157894737
207,780.1024428684004,0.3223684210526315
208,780.1024428684004,0.3421052631578947
209,780.1024428684004,0.375
210,780.1024428684004,0.35526315789473684
211,780.1024428684004,0.3026315789473685
212,780.1024428684004,0.3092105263157895
213,780.1024428684004,0.3157894736842105
214,780.1024428684004,0.3486842105263158
215,780.1024428684004,0.38815789473684215
216,782.8999211977934,0.4605263157894737
217,782.8999211977934,0.45394736842105265
218,782.8999211977934,0.4473684210526315
219,782.8999211977934,0.4078947368421053
220,782.8999211977934,0.4671052631578947
221,782.8999211977934,0.4407894736842105
222,782.8999211977934,0.4736842105263158
223,782.8999211977934,0.48026315789473684
224,782.8999211977934,0.4342105263157895
225,782.8999211977934,0.4276315789473685
226,782.8999211977934,0.42105263157894735
227,782.8999211977934,0.4144736842105263
228,785.6973995271869,0.5197368421052632
229,785.6973995271869,0.5657894736842105
230,785.6973995271869,0.5263157894736843
231,785.6973995271869,0.5592105263157895
232,785.6973995271869,0.5394736842105263
233,785.6973995271869,0.506578947368421
234,785.6973995271869,0.5460526315789473
235,785.6973995271869,0.5526315789473684
236,785.6973995271869,0.5328947368421053
237,785.6973995271869,0.5
238,785.6973995271869,0.513157894736842
239,785.6973995271869,0.48026315789473684
240,785.6973995271869,0.48684210526315785
241,785.6973995271869,0.493421052631579
242,788.4948778565799,0.5789473684210527
243,788.4948778565799,0.5855263157894737
244,788.4948778565799,0.6973684210526316
245,788.4948778565799,0.625
246,788.4948778565799,0.6907894736842105
247,788.4948778565799,0.7236842105263157
248,788.4948778565799,0.6842105263157895
249,788.4948778565799,0.618421052631579
250,788.4948778565799,0.5986842105263157
251,788.4948778565799,0.631578947368421
252,788.4948778565799,0.611842105263158
253,788.4948778565799,0.7171052631578947
254,788.4948778565799,0.5657894736842105
255,788.4948778565799,0.6052631578947368
256,788.4948778565799,0.5723684210526316
257,788.4948778565799,0.6447368421052632
258,788.4948778565799,0.7105263157894737
259,788.4948778565799,0.6513157894736843
260,788.4948778565799,0.7039473684210527
261,788.4948778565799,0.6710526315789473
262,788.4948778565799,0.6578947368421053
263,788.4948778565799,0.6776315789473684
264,788.4948778565799,0.6644736842105263
265,788.4948778565799,0.638157894736842
266,788.4948778565799,0.5921052631578947
267,788.4948778565799,0.7302631578947368
268,791.2923561859734,0.8026315789473684
269,791.2923561859734,0.7960526315789473
270,791.2923561859734,0.7894736842105263
271,791.2923561859734,0.7828947368421053
272,791.2923561859734,0.7763157894736842
273,791.2923561859734,0.7697368421052632
274,791.2923561859734,0.7631578947368421
275,791.2923561859734,0.756578947368421
276,791.2923561859734,0.75
277,791.2923561859734,0.7302631578947368
278,791.2923561859734,0.736842105263158
279,791.2923561859734,0.743421052631579
280,794.0898345153664,0.881578947368421
281,794.0898345153664,0.8881578947368421
282,794.0898345153664,0.8026315789473684
283,794.0898345153664,0.875
284,794.0898345153664,0.8223684210526316
285,794.0898345153664,0.8486842105263158
286,794.0898345153664,0.8092105263157895
287,794.0898345153664,0.868421052631579
288,794.0898345153664,0.8289473684210527
289,794.0898345153664,0.8618421052631579
290,794.0898345153664,0.8157894736842105
291,794.0898345153664,0.8355263157894737
292,794.0898345153664,0.8421052631578947
293,794.0898345153664,0.8552631578947368
294,796.8873128447594,0.9078947368421053
295,796.8873128447594,0.8881578947368421
296,796.8873128447594,0.9013157894736842
297,796.8873128447594,0.9144736842105263
298,796.8873128447594,0.8947368421052632
299,799.6847911741529,0.9078947368421053
300,799.6847911741529,0.9210526315789473
301,799.6847911741529,0.9144736842105263
302,799.6847911741529,0.9276315789473684
303,799.6847911741529,0.9013157894736842
304,802.4822695035459,0.8947368421052632
305,802.4822695035459,0.881578947368421
306,802.4822695035459,0.875
307,802.4822695035459,0.8881578947368421
308,802.4822695035459,0.868421052631579
309,802.4822695035459,0.9013157894736842
310,802.4822695035459,0.8552631578947368
311,802.4822695035459,0.8618421052631579
312,805.2797478329394,0.8552631578947368
313,805.2797478329394,0.8223684210526316
314,805.2797478329394,0.8486842105263158
315,805.2797478329394,0.8157894736842105
316,805.2797478329394,0.8355263157894737
317,805.2797478329394,0.8289473684210527
318,805.2797478329394,0.8421052631578947
319,805.2797478329394,0.8026315789473684
320,805.2797478329394,0.7960526315789473
321,805.2797478329394,0.7894736842105263
322,805.2797478329394,0.8092105263157895
323,805.2797478329394,0.7828947368421053
324,808.0772261623324,0.756578947368421
325,808.0772261623324,0.7631578947368421
326,808.0772261623324,0.7697368421052632
327,808.0772261623324,0.736842105263158
328,808.0772261623324,0.7763157894736842
329,808.0772261623324,0.7828947368421053
330,808.0772261623324,0.743421052631579
331,808.0772261623324,0.75
332,810.8747044917259,0.736842105263158
333,810.8747044917259,0.7039473684210527
334,810.8747044917259,0.6907894736842105
335,810.8747044917259,0.7236842105263157
336,810.8747044917259,0.7302631578947368
337,810.8747044917259,0.7105263157894737
338,810.8747044917259,0.7171052631578947
339,810.8747044917259,0.6973684210526316
340,813.6721828211189,0.6578947368421053
341,813.6721828211189,0.6776315789473684
342,813.6721828211189,0.6842105263157895
343,813.6721828211189,0.6907894736842105
344,813.6721828211189,0.6710526315789473
345,813.6721828211189,0.6644736842105263
346,816.4696611505124,0.625
347,816.4696611505124,0.631578947368421
348,816.4696611505124,0.618421052631579
349,816.4696611505124,0.638157894736842
350,816.4696611505124,0.6513157894736843
351,816.4696611505124,0.6447368421052632
352,816.4696611505124,0.6578947368421053
353,816.4696611505124,0.611842105263158
354,819.2671394799054,0.5657894736842105
355,819.2671394799054,0.5394736842105263
356,819.2671394799054,0.6052631578947368
357,819.2671394799054,0.5592105263157895
358,819.2671394799054,0.5526315789473684
359,819.2671394799054,0.5723684210526316
360,819.2671394799054,0.5460526315789473
361,819.2671394799054,0.5986842105263157
362,819.2671394799054,0.5789473684210527
363,819.2671394799054,0.5921052631578947
364,819.2671394799054,0.611842105263158
365,819.2671394799054,0.5855263157894737
366,819.2671394799054,0.5263157894736843
367,819.2671394799054,0.5328947368421053
368,819.2671394799054,0.513157894736842
369,819.2671394799054,0.5197368421052632
370,822.0646178092989,0.4605263157894737
371,822.0646178092989,0.45394736842105265
372,822.0646178092989,0.48684210526315785
373,822.0646178092989,0.4736842105263158
374,822.0646178092989,0.493421052631579
375,822.0646178092989,0.48026315789473684
376,822.0646178092989,0.506578947368421
377,822.0646178092989,0.513157894736842
378,822.0646178092989,0.5
379,822.0646178092989,0.4671052631578947
380,824.8620961386919,0.45394736842105265
381,824.8620961386919,0.375
382,824.8620961386919,0.381578947368421
383,824.8620961386919,0.4473684210526315
384,824.8620961386919,0.4407894736842105
385,824.8620961386919,0.4144736842105263
386,824.8620961386919,0.4078947368421053
387,824.8620961386919,0.42105263157894735
388,824.8620961386919,0.38815789473684215
389,824.8620961386919,0.368421052631579
390,824.8620961386919,0.4276315789473685
391,824.8620961386919,0.4013157894736842
392,824.8620961386919,0.39473684210526316
393,824.8620961386919,0.4342105263157895
394,827.6595744680849,0.35526315789473684
395,827.6595744680849,0.3486842105263158
396,827.6595744680849,0.368421052631579
397,827.6595744680849,0.3421052631578947
398,827.6595744680849,0.36184210526315785
399,830.4570527974784,0.32894736842105265
400,830.4570527974784,0.3355263157894737
401,830.4570527974784,0.3421052631578947
402,833.2545311268714,0.32894736842105265
403,833.2545311268714,0.3355263157894737
404,836.0520094562648,0.3355263157894737
405,836.0520094562648,0.3486842105263158
406,836.0520094562648,0.35526315789473684
407,836.0520094562648,0.3421052631578947
408,838.8494877856579,0.3486842105263158
409,838.8494877856579,0.35526315789473684
410,841.6469661150513,0.3421052631578947
411,841.6469661150513,0.3223684210526315
412,841.6469661150513,0.3486842105263158
413,841.6469661150513,0.32894736842105265
414,841.6469661150513,0.3355263157894737
415,844.4444444444443,0.3092105263157895
416,844.4444444444443,0.3157894736842105
417,844.4444444444443,0.3026315789473685
418,844.4444444444443,0.3223684210526315
419,847.2419227738378,0.2828947368421053
420,847.2419227738378,0.29605263157894735
421,847.2419227738378,0.3026315789473685
422,847.2419227738378,0.2894736842105263
423,850.0394011032308,0.2828947368421053
424,850.0394011032308,0.26973684210526316
425,850.0394011032308,0.26315789473684215
426,850.0394011032308,0.2763157894736842
427,852.8368794326243,0.26315789473684215
428,855.6343577620173,0.256578947368421
429,855.6343577620173,0.26315789473684215
430,858.4318360914103,0.256578947368421
431,861.2293144208038,0.256578947368421
432,861.2293144208038,0.24342105263157898
433,861.2293144208038,0.25
434,864.0267927501968,0.24342105263157898
435,864.0267927501968,0.23684210526315785
436,866.8242710795903,0.23684210526315785
437,866.8242710795903,0.2171052631578947
438,866.8242710795903,0.22368421052631582
439,866.8242710795903,0.23026315789473684
440,869.6217494089833,0.21052631578947367
441,869.6217494089833,0.2171052631578947
442,872.4192277383768,0.21052631578947367
443,872.4192277383768,0.19736842105263153
444,872.4192277383768,0.20394736842105265
445,875.2167060677698,0.17763157894736847
446,875.2167060677698,0.1842105263157895
447,875.2167060677698,0.19736842105263153
448,875.2167060677698,0.1907894736842105
449,878.0141843971633,0.17105263157894735
450,878.0141843971633,0.16447368421052633
451,878.0141843971633,0.17763157894736847
452,880.8116627265563,0.14473684210526316
453,880.8116627265563,0.1578947368421053
454,880.8116627265563,0.15131578947368418
455,880.8116627265563,0.13815789473684215
456,880.8116627265563,0.16447368421052633
457,883.6091410559497,0.125
458,883.6091410559497,0.13157894736842102
459,883.6091410559497,0.13815789473684215
460,886.4066193853428,0.11842105263157898
461,886.4066193853428,0.125
462,886.4066193853428,0.11184210526315785
463,889.2040977147362,0.11184210526315785
464,889.2040977147362,0.10526315789473684
465,892.0015760441293,0.09868421052631582
466,892.0015760441293,0.10526315789473684
467,894.7990543735223,0.09868421052631582
468,897.5965327029157,0.09868421052631582
469,897.5965327029157,0.09210526315789469
470,900.3940110323088,0.09868421052631582
471,903.1914893617022,0.09868421052631582
472,905.9889676910952,0.09868421052631582
473,905.9889676910952,0.10526315789473684
474,905.9889676910952,0.11184210526315785
475,908.7864460204887,0.11184210526315785
476,911.5839243498817,0.11184210526315785
