,wavenumbers,absorbance
0,452.797478329393,0.03947368421052633
1,452.797478329393,0.03289473684210531
2,455.5949566587865,0.03947368421052633
3,458.3924349881795,0.03947368421052633
4,458.3924349881795,0.03289473684210531
5,461.189913317573,0.03289473684210531
6,463.987391646966,0.03289473684210531
7,463.987391646966,0.02631578947368418
8,466.78486997635946,0.02631578947368418
9,469.5823483057525,0.02631578947368418
10,472.37982663514595,0.02631578947368418
11,475.17730496453896,0.02631578947368418
12,477.97478329393243,0.02631578947368418
13,480.77226162332545,0.02631578947368418
14,483.56973995271846,0.02631578947368418
15,486.36721828211193,0.02631578947368418
16,489.16469661150495,0.02631578947368418
17,491.9621749408984,0.02631578947368418
18,494.75965327029144,0.02631578947368418
19,497.5571315996849,0.02631578947368418
20,500.3546099290779,0.02631578947368418
21,503.1520882584714,0.02631578947368418
22,505.9495665878644,0.02631578947368418
23,505.9495665878644,0.019736842105263164
24,508.7470449172579,0.019736842105263164
25,511.5445232466509,0.019736842105263164
26,514.3420015760439,0.02631578947368418
27,514.3420015760439,0.019736842105263164
28,517.1394799054374,0.02631578947368418
29,519.9369582348304,0.02631578947368418
30,522.7344365642239,0.02631578947368418
31,525.5319148936169,0.02631578947368418
32,528.3293932230104,0.02631578947368418
33,531.1268715524034,0.02631578947368418
34,533.9243498817968,0.02631578947368418
35,536.7218282111899,0.02631578947368418
36,539.5193065405833,0.02631578947368418
37,542.3167848699763,0.02631578947368418
38,545.1142631993694,0.02631578947368418
39,547.9117415287628,0.02631578947368418
40,550.7092198581558,0.02631578947368418
41,553.5066981875493,0.02631578947368418
42,556.3041765169423,0.02631578947368418
43,559.1016548463358,0.02631578947368418
44,561.8991331757288,0.02631578947368418
45,564.6966115051223,0.02631578947368418
46,567.4940898345153,0.02631578947368418
47,570.2915681639088,0.02631578947368418
48,573.0890464933018,0.02631578947368418
49,575.8865248226948,0.03289473684210531
50,575.8865248226948,0.02631578947368418
51,578.6840031520883,0.03289473684210531
52,581.4814814814813,0.03289473684210531
53,584.2789598108748,0.03289473684210531
54,587.0764381402678,0.03947368421052633
55,587.0764381402678,0.03289473684210531
56,589.8739164696613,0.03947368421052633
57,589.8739164696613,0.046052631578947345
58,592.6713947990543,0.052631578947368474
59,592.6713947990543,0.046052631578947345
60,595.4688731284477,0.06578947368421051
61,595.4688731284477,0.05921052631578949
62,595.4688731284477,0.052631578947368474
63,595.4688731284477,0.07236842105263153
64,598.2663514578408,0.07894736842105265
65,598.2663514578408,0.07236842105263153
66,601.0638297872342,0.08552631578947367
67,601.0638297872342,0.09210526315789469
68,601.0638297872342,0.09868421052631582
69,601.0638297872342,0.07894736842105265
70,603.8613081166272,0.09868421052631582
71,603.8613081166272,0.09210526315789469
72,606.6587864460207,0.07894736842105265
73,606.6587864460207,0.08552631578947367
74,606.6587864460207,0.09210526315789469
75,609.4562647754137,0.07236842105263153
76,609.4562647754137,0.07894736842105265
77,609.4562647754137,0.06578947368421051
78,612.2537431048067,0.06578947368421051
79,612.2537431048067,0.05921052631578949
80,612.2537431048067,0.052631578947368474
81,615.0512214342002,0.052631578947368474
82,617.8486997635932,0.052631578947368474
83,620.6461780929867,0.05921052631578949
84,620.6461780929867,0.052631578947368474
85,620.6461780929867,0.06578947368421051
86,623.4436564223797,0.06578947368421051
87,626.2411347517732,0.06578947368421051
88,629.0386130811662,0.06578947368421051
89,629.0386130811662,0.05921052631578949
90,631.8360914105597,0.05921052631578949
91,634.6335697399527,0.05921052631578949
92,634.6335697399527,0.052631578947368474
93,637.4310480693462,0.052631578947368474
94,640.2285263987392,0.052631578947368474
95,643.0260047281322,0.046052631578947345
96,643.0260047281322,0.052631578947368474
97,645.8234830575257,0.03947368421052633
98,645.8234830575257,0.046052631578947345
99,648.6209613869187,0.03947368421052633
100,651.4184397163122,0.03289473684210531
101,651.4184397163122,0.03947368421052633
102,654.2159180457052,0.03289473684210531
103,657.0133963750986,0.02631578947368418
104,659.8108747044917,0.02631578947368418
105,662.6083530338851,0.02631578947368418
106,665.4058313632781,0.02631578947368418
107,668.2033096926716,0.019736842105263164
108,668.2033096926716,0.02631578947368418
109,671.0007880220646,0.02631578947368418
110,673.7982663514576,0.02631578947368418
111,673.7982663514576,0.019736842105263164
112,676.5957446808511,0.019736842105263164
113,676.5957446808511,0.02631578947368418
114,679.3932230102441,0.02631578947368418
115,682.1907013396376,0.02631578947368418
116,682.1907013396376,0.019736842105263164
117,684.9881796690306,0.02631578947368418
118,687.7856579984241,0.02631578947368418
119,690.5831363278171,0.02631578947368418
120,693.3806146572106,0.02631578947368418
121,696.1780929866036,0.02631578947368418
122,698.9755713159971,0.02631578947368418
123,698.9755713159971,0.019736842105263164
124,701.7730496453901,0.019736842105263164
125,704.5705279747831,0.019736842105263164
126,707.3680063041766,0.019736842105263164
127,710.1654846335696,0.019736842105263164
128,712.962962962963,0.019736842105263164
129,715.7604412923561,0.019736842105263164
130,718.5579196217495,0.019736842105263164
131,721.3553979511425,0.019736842105263164
132,724.152876280536,0.019736842105263164
133,724.152876280536,0.02631578947368418
134,726.950354609929,0.02631578947368418
135,729.7478329393225,0.02631578947368418
136,732.5453112687155,0.03289473684210531
137,732.5453112687155,0.02631578947368418
138,735.3427895981085,0.03947368421052633
139,735.3427895981085,0.03289473684210531
140,738.140267927502,0.046052631578947345
141,738.140267927502,0.03947368421052633
142,740.937746256895,0.046052631578947345
143,740.937746256895,0.052631578947368474
144,743.7352245862885,0.052631578947368474
145,743.7352245862885,0.06578947368421051
146,743.7352245862885,0.05921052631578949
147,746.5327029156815,0.06578947368421051
148,749.330181245075,0.06578947368421051
149,749.330181245075,0.07236842105263153
150,752.127659574468,0.07236842105263153
151,754.9251379038615,0.07236842105263153
152,754.9251379038615,0.07894736842105265
153,757.7226162332545,0.07894736842105265
154,760.520094562648,0.07894736842105265
155,763.317572892041,0.07894736842105265
156,766.115051221434,0.07894736842105265
157,768.9125295508275,0.07894736842105265
158,768.9125295508275,0.07236842105263153
159,771.7100078802205,0.07894736842105265
160,771.7100078802205,0.07236842105263153
161,774.507486209614,0.07894736842105265
162,777.304964539007,0.07894736842105265
163,777.304964539007,0.08552631578947367
164,780.1024428684004,0.08552631578947367
165,780.1024428684004,0.09210526315789469
166,782.8999211977934,0.08552631578947367
167,782.8999211977934,0.09210526315789469
168,785.6973995271869,0.08552631578947367
169,788.4948778565799,0.07894736842105265
170,788.4948778565799,0.08552631578947367
171,791.2923561859734,0.07894736842105265
172,791.2923561859734,0.07236842105263153
173,794.0898345153664,0.06578947368421051
174,794.0898345153664,0.07236842105263153
175,796.8873128447594,0.06578947368421051
176,799.6847911741529,0.05921052631578949
177,799.6847911741529,0.06578947368421051
178,802.4822695035459,0.05921052631578949
179,805.2797478329394,0.05921052631578949
180,808.0772261623324,0.05921052631578949
181,810.8747044917259,0.05921052631578949
182,813.6721828211189,0.052631578947368474
183,813.6721828211189,0.05921052631578949
184,816.4696611505124,0.052631578947368474
185,819.2671394799054,0.052631578947368474
186,822.0646178092989,0.052631578947368474
187,824.8620961386919,0.052631578947368474
188,824.8620961386919,0.05921052631578949
189,827.6595744680849,0.05921052631578949
190,830.4570527974784,0.06578947368421051
191,830.4570527974784,0.05921052631578949
192,833.2545311268714,0.07236842105263153
193,833.2545311268714,0.06578947368421051
194,836.0520094562648,0.07236842105263153
195,836.0520094562648,0.07894736842105265
196,836.0520094562648,0.08552631578947367
197,838.8494877856579,0.08552631578947367
198,838.8494877856579,0.09210526315789469
199,841.6469661150513,0.13157894736842102
200,841.6469661150513,0.09210526315789469
201,841.6469661150513,0.09868421052631582
202,841.6469661150513,0.10526315789473684
203,841.6469661150513,0.11184210526315785
204,841.6469661150513,0.125
205,841.6469661150513,0.11842105263157898
206,841.6469661150513,0.13815789473684215
207,844.4444444444443,0.1578947368421053
208,844.4444444444443,0.16447368421052633
209,844.4444444444443,0.15131578947368418
210,844.4444444444443,0.13815789473684215
211,844.4444444444443,0.14473684210526316
212,847.2419227738378,0.17105263157894735
213,847.2419227738378,0.16447368421052633
214,847.2419227738378,0.17763157894736847
215,847.2419227738378,0.1842105263157895
216,847.2419227738378,0.1907894736842105
217,850.0394011032308,0.1842105263157895
218,850.0394011032308,0.1907894736842105
219,850.0394011032308,0.19736842105263153
220,852.8368794326243,0.1842105263157895
221,852.8368794326243,0.17763157894736847
222,855.6343577620173,0.17763157894736847
223,855.6343577620173,0.1578947368421053
224,855.6343577620173,0.14473684210526316
225,855.6343577620173,0.16447368421052633
226,855.6343577620173,0.15131578947368418
227,855.6343577620173,0.17105263157894735
228,858.4318360914103,0.13815789473684215
229,858.4318360914103,0.14473684210526316
230,858.4318360914103,0.13157894736842102
231,861.2293144208038,0.125
232,861.2293144208038,0.13157894736842102
233,861.2293144208038,0.11184210526315785
234,861.2293144208038,0.11842105263157898
235,864.0267927501968,0.11184210526315785
236,864.0267927501968,0.10526315789473684
237,866.8242710795903,0.10526315789473684
238,866.8242710795903,0.09868421052631582
239,866.8242710795903,0.09210526315789469
240,869.6217494089833,0.09210526315789469
241,869.6217494089833,0.08552631578947367
242,872.4192277383768,0.08552631578947367
243,875.2167060677698,0.07894736842105265
244,875.2167060677698,0.07236842105263153
245,875.2167060677698,0.08552631578947367
246,878.0141843971633,0.06578947368421051
247,878.0141843971633,0.07236842105263153
248,880.8116627265563,0.06578947368421051
249,880.8116627265563,0.052631578947368474
250,880.8116627265563,0.05921052631578949
251,883.6091410559497,0.052631578947368474
252,886.4066193853428,0.052631578947368474
253,889.2040977147362,0.052631578947368474
254,892.0015760441293,0.05921052631578949
255,892.0015760441293,0.052631578947368474
256,894.7990543735223,0.05921052631578949
257,897.5965327029157,0.05921052631578949
258,900.3940110323088,0.05921052631578949
259,900.3940110323088,0.06578947368421051
260,903.1914893617022,0.06578947368421051
261,905.9889676910952,0.06578947368421051
262,905.9889676910952,0.07236842105263153
263,908.7864460204887,0.07236842105263153
264,911.5839243498817,0.07894736842105265
265,911.5839243498817,0.07236842105263153
266,914.3814026792752,0.07894736842105265
267,917.1788810086682,0.08552631578947367
268,917.1788810086682,0.07894736842105265
269,919.9763593380617,0.09210526315789469
270,919.9763593380617,0.08552631578947367
271,922.7738376674547,0.10526315789473684
272,922.7738376674547,0.09868421052631582
273,922.7738376674547,0.09210526315789469
274,925.5713159968477,0.11184210526315785
275,925.5713159968477,0.10526315789473684
276,928.3687943262412,0.11184210526315785
277,928.3687943262412,0.11842105263157898
278,931.1662726556342,0.125
279,931.1662726556342,0.11842105263157898
280,931.1662726556342,0.13157894736842102
281,933.9637509850277,0.13157894736842102
282,933.9637509850277,0.13815789473684215
283,936.7612293144207,0.13157894736842102
284,936.7612293144207,0.13815789473684215
285,939.5587076438142,0.13157894736842102
286,942.3561859732072,0.13157894736842102
287,942.3561859732072,0.125
288,945.1536643026006,0.125
289,947.9511426319937,0.11842105263157898
290,947.9511426319937,0.125
291,950.7486209613871,0.11842105263157898
292,953.5460992907801,0.11842105263157898
293,956.3435776201732,0.11184210526315785
294,956.3435776201732,0.11842105263157898
295,959.1410559495666,0.11184210526315785
296,961.9385342789597,0.11184210526315785
297,964.7360126083531,0.11184210526315785
298,967.5334909377461,0.10526315789473684
299,967.5334909377461,0.11184210526315785
300,970.3309692671396,0.11184210526315785
301,973.1284475965326,0.11842105263157898
302,973.1284475965326,0.11184210526315785
303,975.9259259259261,0.11842105263157898
304,978.7234042553191,0.11842105263157898
305,978.7234042553191,0.125
306,981.5208825847126,0.13157894736842102
307,981.5208825847126,0.125
308,984.3183609141056,0.13815789473684215
309,984.3183609141056,0.13157894736842102
310,987.1158392434986,0.13815789473684215
311,987.1158392434986,0.14473684210526316
312,989.9133175728921,0.14473684210526316
313,989.9133175728921,0.15131578947368418
314,989.9133175728921,0.1578947368421053
315,992.7107959022851,0.1578947368421053
316,992.7107959022851,0.17763157894736847
317,992.7107959022851,0.16447368421052633
318,992.7107959022851,0.17105263157894735
319,995.5082742316786,0.1842105263157895
320,995.5082742316786,0.1907894736842105
321,995.5082742316786,0.17763157894736847
322,998.3057525610716,0.19736842105263153
323,998.3057525610716,0.23684210526315785
324,998.3057525610716,0.23026315789473684
325,998.3057525610716,0.22368421052631582
326,998.3057525610716,0.2171052631578947
327,998.3057525610716,0.21052631578947367
328,998.3057525610716,0.20394736842105265
329,998.3057525610716,0.1907894736842105
330,1001.103230890465,0.26315789473684215
331,1001.103230890465,0.256578947368421
332,1001.103230890465,0.25
333,1001.103230890465,0.24342105263157898
334,1001.103230890465,0.23684210526315785
335,1003.9007092198581,0.3355263157894737
336,1003.9007092198581,0.32894736842105265
337,1003.9007092198581,0.3157894736842105
338,1003.9007092198581,0.3092105263157895
339,1003.9007092198581,0.26315789473684215
340,1003.9007092198581,0.26973684210526316
341,1003.9007092198581,0.3026315789473685
342,1003.9007092198581,0.29605263157894735
343,1003.9007092198581,0.2894736842105263
344,1003.9007092198581,0.2828947368421053
345,1003.9007092198581,0.2763157894736842
346,1003.9007092198581,0.3223684210526315
347,1006.6981875492515,0.381578947368421
348,1006.6981875492515,0.36184210526315785
349,1006.6981875492515,0.3486842105263158
350,1006.6981875492515,0.375
351,1006.6981875492515,0.368421052631579
352,1006.6981875492515,0.3421052631578947
353,1006.6981875492515,0.3355263157894737
354,1006.6981875492515,0.35526315789473684
355,1009.4956658786446,0.4144736842105263
356,1009.4956658786446,0.4736842105263158
357,1009.4956658786446,0.4605263157894737
358,1009.4956658786446,0.4342105263157895
359,1009.4956658786446,0.42105263157894735
360,1009.4956658786446,0.45394736842105265
361,1009.4956658786446,0.4013157894736842
362,1009.4956658786446,0.4473684210526315
363,1009.4956658786446,0.4407894736842105
364,1009.4956658786446,0.4078947368421053
365,1009.4956658786446,0.381578947368421
366,1009.4956658786446,0.38815789473684215
367,1009.4956658786446,0.39473684210526316
368,1009.4956658786446,0.4276315789473685
369,1009.4956658786446,0.4671052631578947
370,1012.293144208038,0.5197368421052632
371,1012.293144208038,0.506578947368421
372,1012.293144208038,0.513157894736842
373,1012.293144208038,0.4736842105263158
374,1012.293144208038,0.5263157894736843
375,1012.293144208038,0.48026315789473684
376,1012.293144208038,0.48684210526315785
377,1012.293144208038,0.5
378,1012.293144208038,0.493421052631579
379,1015.090622537431,0.5263157894736843
380,1015.090622537431,0.5460526315789473
381,1015.090622537431,0.5394736842105263
382,1015.090622537431,0.5592105263157895
383,1015.090622537431,0.5657894736842105
384,1015.090622537431,0.5328947368421053
385,1015.090622537431,0.5526315789473684
386,1017.8881008668241,0.5657894736842105
387,1017.8881008668241,0.5921052631578947
388,1017.8881008668241,0.5855263157894737
389,1017.8881008668241,0.5789473684210527
390,1017.8881008668241,0.5723684210526316
391,1020.6855791962175,0.5855263157894737
392,1020.6855791962175,0.5921052631578947
393,1023.4830575256105,0.5789473684210527
394,1023.4830575256105,0.5723684210526316
395,1023.4830575256105,0.5855263157894737
396,1023.4830575256105,0.5657894736842105
397,1023.4830575256105,0.5592105263157895
398,1026.280535855004,0.5526315789473684
399,1026.280535855004,0.5592105263157895
400,1026.280535855004,0.5394736842105263
401,1026.280535855004,0.5460526315789473
402,1029.078014184397,0.506578947368421
403,1029.078014184397,0.5394736842105263
404,1029.078014184397,0.5197368421052632
405,1029.078014184397,0.493421052631579
406,1029.078014184397,0.5
407,1029.078014184397,0.513157894736842
408,1029.078014184397,0.5263157894736843
409,1029.078014184397,0.5328947368421053
410,1031.8754925137905,0.493421052631579
411,1031.8754925137905,0.48684210526315785
412,1034.6729708431835,0.48026315789473684
413,1034.6729708431835,0.48684210526315785
414,1034.6729708431835,0.4736842105263158
415,1034.6729708431835,0.4671052631578947
416,1034.6729708431835,0.4605263157894737
417,1037.470449172577,0.4605263157894737
418,1037.470449172577,0.45394736842105265
419,1040.26792750197,0.4407894736842105
420,1040.26792750197,0.4342105263157895
421,1040.26792750197,0.45394736842105265
422,1040.26792750197,0.4473684210526315
423,1043.0654058313635,0.4342105263157895
424,1043.0654058313635,0.4276315789473685
425,1045.8628841607565,0.42105263157894735
426,1045.8628841607565,0.4144736842105263
427,1045.8628841607565,0.4276315789473685
428,1048.6603624901495,0.4144736842105263
429,1048.6603624901495,0.4013157894736842
430,1048.6603624901495,0.4078947368421053
431,1051.457840819543,0.4013157894736842
432,1051.457840819543,0.39473684210526316
433,1051.457840819543,0.38815789473684215
434,1054.255319148936,0.381578947368421
435,1054.255319148936,0.38815789473684215
436,1054.255319148936,0.375
437,1057.0527974783295,0.375
438,1057.0527974783295,0.368421052631579
439,1059.8502758077225,0.368421052631579
440,1059.8502758077225,0.36184210526315785
441,1062.647754137116,0.35526315789473684
442,1062.647754137116,0.36184210526315785
443,1065.445232466509,0.3486842105263158
444,1065.445232466509,0.35526315789473684
445,1068.2427107959024,0.3486842105263158
446,1068.2427107959024,0.3421052631578947
447,1071.0401891252955,0.3421052631578947
448,1073.837667454689,0.3421052631578947
449,1076.635145784082,0.3421052631578947
450,1079.432624113475,0.3421052631578947
451,1079.432624113475,0.3486842105263158
452,1082.2301024428684,0.36184210526315785
453,1082.2301024428684,0.3486842105263158
454,1082.2301024428684,0.35526315789473684
455,1085.0275807722614,0.38815789473684215
456,1085.0275807722614,0.381578947368421
457,1085.0275807722614,0.39473684210526316
458,1085.0275807722614,0.36184210526315785
459,1085.0275807722614,0.375
460,1085.0275807722614,0.368421052631579
461,1087.825059101655,0.39473684210526316
462,1087.825059101655,0.4144736842105263
463,1087.825059101655,0.42105263157894735
464,1087.825059101655,0.4078947368421053
465,1087.825059101655,0.4013157894736842
466,1090.622537431048,0.4605263157894737
467,1090.622537431048,0.45394736842105265
468,1090.622537431048,0.4407894736842105
469,1090.622537431048,0.42105263157894735
470,1090.622537431048,0.4276315789473685
471,1090.622537431048,0.4342105263157895
