,wavenumbers,absorbance
0,452.797478329393,0.02631578947368418
1,455.5949566587865,0.02631578947368418
2,458.3924349881795,0.02631578947368418
3,461.189913317573,0.02631578947368418
4,461.189913317573,0.03289473684210531
5,463.987391646966,0.03289473684210531
6,463.987391646966,0.02631578947368418
7,463.987391646966,0.019736842105263164
8,466.78486997635946,0.019736842105263164
9,469.5823483057525,0.019736842105263164
10,472.37982663514595,0.019736842105263164
11,475.17730496453896,0.019736842105263164
12,477.97478329393243,0.019736842105263164
13,480.77226162332545,0.019736842105263164
14,483.56973995271846,0.019736842105263164
15,486.36721828211193,0.02631578947368418
16,486.36721828211193,0.019736842105263164
17,489.16469661150495,0.02631578947368418
18,489.16469661150495,0.019736842105263164
19,491.9621749408984,0.02631578947368418
20,491.9621749408984,0.019736842105263164
21,494.75965327029144,0.019736842105263164
22,497.5571315996849,0.019736842105263164
23,500.3546099290779,0.019736842105263164
24,503.1520882584714,0.019736842105263164
25,505.9495665878644,0.019736842105263164
26,508.7470449172579,0.019736842105263164
27,511.5445232466509,0.019736842105263164
28,514.3420015760439,0.019736842105263164
29,517.1394799054374,0.019736842105263164
30,519.9369582348304,0.019736842105263164
31,522.7344365642239,0.019736842105263164
32,525.5319148936169,0.019736842105263164
33,528.3293932230104,0.019736842105263164
34,531.1268715524034,0.019736842105263164
35,533.9243498817968,0.019736842105263164
36,536.7218282111899,0.019736842105263164
37,539.5193065405833,0.019736842105263164
38,542.3167848699763,0.019736842105263164
39,545.1142631993694,0.019736842105263164
40,547.9117415287628,0.019736842105263164
41,550.7092198581558,0.019736842105263164
42,553.5066981875493,0.019736842105263164
43,556.3041765169423,0.019736842105263164
44,559.1016548463358,0.019736842105263164
45,561.8991331757288,0.019736842105263164
46,564.6966115051223,0.019736842105263164
47,567.4940898345153,0.019736842105263164
48,570.2915681639088,0.019736842105263164
49,573.0890464933018,0.019736842105263164
50,575.8865248226948,0.019736842105263164
51,578.6840031520883,0.019736842105263164
52,581.4814814814813,0.019736842105263164
53,584.2789598108748,0.019736842105263164
54,587.0764381402678,0.019736842105263164
55,589.8739164696613,0.019736842105263164
56,592.6713947990543,0.019736842105263164
57,595.4688731284477,0.019736842105263164
58,598.2663514578408,0.019736842105263164
59,601.0638297872342,0.02631578947368418
60,601.0638297872342,0.019736842105263164
61,603.8613081166272,0.019736842105263164
62,606.6587864460207,0.019736842105263164
63,609.4562647754137,0.019736842105263164
64,612.2537431048067,0.019736842105263164
65,615.0512214342002,0.019736842105263164
66,617.8486997635932,0.019736842105263164
67,620.6461780929867,0.019736842105263164
68,623.4436564223797,0.019736842105263164
69,626.2411347517732,0.019736842105263164
70,629.0386130811662,0.019736842105263164
71,631.8360914105597,0.019736842105263164
72,634.6335697399527,0.019736842105263164
73,637.4310480693462,0.019736842105263164
74,637.4310480693462,0.02631578947368418
75,640.2285263987392,0.02631578947368418
76,643.0260047281322,0.02631578947368418
77,643.0260047281322,0.03947368421052633
78,643.0260047281322,0.03289473684210531
79,645.8234830575257,0.03947368421052633
80,648.6209613869187,0.03947368421052633
81,648.6209613869187,0.03289473684210531
82,651.4184397163122,0.03289473684210531
83,654.2159180457052,0.03289473684210531
84,657.0133963750986,0.02631578947368418
85,657.0133963750986,0.03289473684210531
86,659.8108747044917,0.02631578947368418
87,662.6083530338851,0.02631578947368418
88,662.6083530338851,0.019736842105263164
89,665.4058313632781,0.019736842105263164
90,668.2033096926716,0.019736842105263164
91,671.0007880220646,0.019736842105263164
92,673.7982663514576,0.019736842105263164
93,676.5957446808511,0.019736842105263164
94,679.3932230102441,0.019736842105263164
95,682.1907013396376,0.019736842105263164
96,684.9881796690306,0.019736842105263164
97,687.7856579984241,0.019736842105263164
98,690.5831363278171,0.019736842105263164
99,693.3806146572106,0.019736842105263164
100,696.1780929866036,0.019736842105263164
101,698.9755713159971,0.019736842105263164
102,701.7730496453901,0.019736842105263164
103,701.7730496453901,0.02631578947368418
104,704.5705279747831,0.02631578947368418
105,707.3680063041766,0.02631578947368418
106,707.3680063041766,0.03289473684210531
107,710.1654846335696,0.03947368421052633
108,710.1654846335696,0.03289473684210531
109,712.962962962963,0.052631578947368474
110,712.962962962963,0.03947368421052633
111,712.962962962963,0.046052631578947345
112,715.7604412923561,0.05921052631578949
113,715.7604412923561,0.052631578947368474
114,718.5579196217495,0.052631578947368474
115,718.5579196217495,0.05921052631578949
116,721.3553979511425,0.046052631578947345
117,721.3553979511425,0.052631578947368474
118,724.152876280536,0.03947368421052633
119,724.152876280536,0.046052631578947345
120,724.152876280536,0.03289473684210531
121,726.950354609929,0.03289473684210531
122,729.7478329393225,0.02631578947368418
123,729.7478329393225,0.03289473684210531
124,732.5453112687155,0.02631578947368418
125,735.3427895981085,0.02631578947368418
126,738.140267927502,0.02631578947368418
127,738.140267927502,0.019736842105263164
128,740.937746256895,0.019736842105263164
129,743.7352245862885,0.019736842105263164
130,746.5327029156815,0.019736842105263164
131,749.330181245075,0.019736842105263164
132,752.127659574468,0.019736842105263164
133,754.9251379038615,0.019736842105263164
134,757.7226162332545,0.019736842105263164
135,760.520094562648,0.019736842105263164
136,763.317572892041,0.019736842105263164
137,766.115051221434,0.019736842105263164
138,768.9125295508275,0.019736842105263164
139,771.7100078802205,0.019736842105263164
140,774.507486209614,0.019736842105263164
141,777.304964539007,0.019736842105263164
142,780.1024428684004,0.019736842105263164
143,782.8999211977934,0.019736842105263164
144,785.6973995271869,0.019736842105263164
145,788.4948778565799,0.019736842105263164
146,791.2923561859734,0.019736842105263164
147,794.0898345153664,0.019736842105263164
148,796.8873128447594,0.019736842105263164
149,799.6847911741529,0.019736842105263164
150,799.6847911741529,0.02631578947368418
151,802.4822695035459,0.02631578947368418
152,802.4822695035459,0.03289473684210531
153,805.2797478329394,0.05921052631578949
154,805.2797478329394,0.046052631578947345
155,805.2797478329394,0.052631578947368474
156,805.2797478329394,0.03289473684210531
157,805.2797478329394,0.03947368421052633
158,808.0772261623324,0.06578947368421051
159,808.0772261623324,0.07894736842105265
160,808.0772261623324,0.05921052631578949
161,808.0772261623324,0.07236842105263153
162,810.8747044917259,0.06578947368421051
163,810.8747044917259,0.07894736842105265
164,810.8747044917259,0.07236842105263153
165,813.6721828211189,0.06578947368421051
166,813.6721828211189,0.052631578947368474
167,813.6721828211189,0.05921052631578949
168,816.4696611505124,0.046052631578947345
169,816.4696611505124,0.03947368421052633
170,816.4696611505124,0.03289473684210531
171,816.4696611505124,0.052631578947368474
172,819.2671394799054,0.02631578947368418
173,819.2671394799054,0.03289473684210531
174,822.0646178092989,0.019736842105263164
175,822.0646178092989,0.02631578947368418
176,824.8620961386919,0.019736842105263164
177,827.6595744680849,0.019736842105263164
178,830.4570527974784,0.019736842105263164
179,833.2545311268714,0.019736842105263164
180,836.0520094562648,0.019736842105263164
181,838.8494877856579,0.019736842105263164
182,841.6469661150513,0.019736842105263164
183,844.4444444444443,0.019736842105263164
184,847.2419227738378,0.019736842105263164
185,850.0394011032308,0.019736842105263164
186,852.8368794326243,0.019736842105263164
187,855.6343577620173,0.019736842105263164
188,858.4318360914103,0.019736842105263164
189,861.2293144208038,0.019736842105263164
190,864.0267927501968,0.019736842105263164
191,866.8242710795903,0.019736842105263164
192,869.6217494089833,0.019736842105263164
193,872.4192277383768,0.019736842105263164
194,875.2167060677698,0.019736842105263164
195,878.0141843971633,0.019736842105263164
196,880.8116627265563,0.019736842105263164
197,883.6091410559497,0.019736842105263164
198,886.4066193853428,0.019736842105263164
199,889.2040977147362,0.019736842105263164
200,892.0015760441293,0.019736842105263164
201,894.7990543735223,0.019736842105263164
202,897.5965327029157,0.019736842105263164
203,900.3940110323088,0.02631578947368418
204,900.3940110323088,0.019736842105263164
205,903.1914893617022,0.02631578947368418
206,905.9889676910952,0.02631578947368418
207,908.7864460204887,0.02631578947368418
208,911.5839243498817,0.02631578947368418
209,914.3814026792752,0.02631578947368418
210,917.1788810086682,0.02631578947368418
211,917.1788810086682,0.03289473684210531
212,919.9763593380617,0.03289473684210531
213,922.7738376674547,0.046052631578947345
214,922.7738376674547,0.052631578947368474
215,922.7738376674547,0.03947368421052633
216,922.7738376674547,0.03289473684210531
217,925.5713159968477,0.05921052631578949
218,925.5713159968477,0.06578947368421051
219,925.5713159968477,0.052631578947368474
220,928.3687943262412,0.08552631578947367
221,928.3687943262412,0.07236842105263153
222,928.3687943262412,0.07894736842105265
223,928.3687943262412,0.06578947368421051
224,931.1662726556342,0.11184210526315785
225,931.1662726556342,0.11842105263157898
226,931.1662726556342,0.125
227,931.1662726556342,0.13157894736842102
228,931.1662726556342,0.10526315789473684
229,931.1662726556342,0.09210526315789469
230,931.1662726556342,0.09868421052631582
231,931.1662726556342,0.08552631578947367
232,933.9637509850277,0.13157894736842102
233,936.7612293144207,0.11842105263157898
234,936.7612293144207,0.13157894736842102
235,936.7612293144207,0.11184210526315785
236,936.7612293144207,0.09868421052631582
237,936.7612293144207,0.125
238,936.7612293144207,0.10526315789473684
239,939.5587076438142,0.09210526315789469
240,939.5587076438142,0.08552631578947367
241,939.5587076438142,0.09868421052631582
242,942.3561859732072,0.07894736842105265
243,942.3561859732072,0.06578947368421051
244,942.3561859732072,0.05921052631578949
245,942.3561859732072,0.07236842105263153
246,942.3561859732072,0.08552631578947367
247,945.1536643026006,0.052631578947368474
248,945.1536643026006,0.05921052631578949
249,947.9511426319937,0.052631578947368474
250,947.9511426319937,0.046052631578947345
251,950.7486209613871,0.046052631578947345
252,950.7486209613871,0.03947368421052633
253,953.5460992907801,0.03947368421052633
254,953.5460992907801,0.03289473684210531
255,956.3435776201732,0.03289473684210531
256,959.1410559495666,0.03289473684210531
257,961.9385342789597,0.03289473684210531
258,964.7360126083531,0.03947368421052633
259,964.7360126083531,0.03289473684210531
260,967.5334909377461,0.03947368421052633
261,970.3309692671396,0.03947368421052633
262,973.1284475965326,0.03947368421052633
263,975.9259259259261,0.03947368421052633
264,978.7234042553191,0.046052631578947345
265,978.7234042553191,0.03947368421052633
266,981.5208825847126,0.03947368421052633
267,984.3183609141056,0.03947368421052633
268,987.1158392434986,0.03947368421052633
269,989.9133175728921,0.03947368421052633
270,992.7107959022851,0.03947368421052633
271,995.5082742316786,0.03947368421052633
272,998.3057525610716,0.03947368421052633
273,998.3057525610716,0.046052631578947345
274,1001.103230890465,0.052631578947368474
275,1001.103230890465,0.046052631578947345
276,1003.9007092198581,0.07236842105263153
277,1003.9007092198581,0.06578947368421051
278,1003.9007092198581,0.052631578947368474
279,1003.9007092198581,0.05921052631578949
280,1006.6981875492515,0.07236842105263153
281,1009.4956658786446,0.07236842105263153
282,1009.4956658786446,0.06578947368421051
283,1012.293144208038,0.06578947368421051
284,1012.293144208038,0.05921052631578949
285,1015.090622537431,0.05921052631578949
286,1017.8881008668241,0.05921052631578949
287,1017.8881008668241,0.052631578947368474
288,1020.6855791962175,0.046052631578947345
289,1020.6855791962175,0.052631578947368474
290,1023.4830575256105,0.046052631578947345
291,1026.280535855004,0.046052631578947345
292,1029.078014184397,0.046052631578947345
293,1031.8754925137905,0.046052631578947345
294,1034.6729708431835,0.046052631578947345
295,1037.470449172577,0.046052631578947345
296,1040.26792750197,0.046052631578947345
297,1043.0654058313635,0.046052631578947345
298,1045.8628841607565,0.046052631578947345
299,1048.6603624901495,0.03947368421052633
300,1048.6603624901495,0.046052631578947345
301,1051.457840819543,0.03947368421052633
302,1051.457840819543,0.046052631578947345
303,1054.255319148936,0.03947368421052633
304,1054.255319148936,0.046052631578947345
305,1057.0527974783295,0.046052631578947345
306,1057.0527974783295,0.03947368421052633
307,1059.8502758077225,0.046052631578947345
308,1062.647754137116,0.03947368421052633
309,1062.647754137116,0.046052631578947345
310,1065.445232466509,0.03947368421052633
311,1068.2427107959024,0.03947368421052633
312,1071.0401891252955,0.03947368421052633
313,1073.837667454689,0.03947368421052633
314,1073.837667454689,0.03289473684210531
315,1076.635145784082,0.03289473684210531
316,1079.432624113475,0.03289473684210531
317,1082.2301024428684,0.03289473684210531
318,1085.0275807722614,0.03289473684210531
319,1087.825059101655,0.02631578947368418
320,1087.825059101655,0.03289473684210531
321,1090.622537431048,0.03289473684210531
322,1090.622537431048,0.02631578947368418
323,1093.4200157604414,0.02631578947368418
324,1096.2174940898344,0.02631578947368418
325,1096.2174940898344,0.03289473684210531
326,1099.014972419228,0.03289473684210531
327,1101.812450748621,0.03289473684210531
328,1104.6099290780144,0.03289473684210531
329,1107.4074074074074,0.03289473684210531
330,1110.2048857368004,0.03289473684210531
331,1113.0023640661939,0.03289473684210531
332,1115.799842395587,0.03947368421052633
333,1115.799842395587,0.03289473684210531
334,1118.5973207249804,0.03947368421052633
335,1121.3947990543734,0.03947368421052633
336,1121.3947990543734,0.046052631578947345
337,1124.1922773837669,0.046052631578947345
338,1126.9897557131599,0.046052631578947345
339,1129.7872340425533,0.046052631578947345
340,1129.7872340425533,0.05921052631578949
341,1129.7872340425533,0.052631578947368474
342,1132.5847123719464,0.05921052631578949
343,1132.5847123719464,0.06578947368421051
344,1135.3821907013398,0.06578947368421051
345,1135.3821907013398,0.07894736842105265
346,1135.3821907013398,0.07236842105263153
347,1138.1796690307328,0.08552631578947367
348,1138.1796690307328,0.09210526315789469
349,1138.1796690307328,0.07894736842105265
350,1140.9771473601263,0.10526315789473684
351,1140.9771473601263,0.11184210526315785
352,1140.9771473601263,0.09210526315789469
353,1140.9771473601263,0.11842105263157898
354,1140.9771473601263,0.09868421052631582
355,1143.7746256895193,0.14473684210526316
356,1143.7746256895193,0.13815789473684215
357,1143.7746256895193,0.125
358,1143.7746256895193,0.11842105263157898
359,1143.7746256895193,0.13157894736842102
360,1146.5721040189123,0.2171052631578947
361,1146.5721040189123,0.22368421052631582
362,1146.5721040189123,0.21052631578947367
363,1146.5721040189123,0.15131578947368418
364,1146.5721040189123,0.19736842105263153
365,1146.5721040189123,0.1578947368421053
366,1146.5721040189123,0.1842105263157895
367,1146.5721040189123,0.16447368421052633
368,1146.5721040189123,0.17105263157894735
369,1146.5721040189123,0.14473684210526316
370,1146.5721040189123,0.17763157894736847
371,1146.5721040189123,0.20394736842105265
372,1146.5721040189123,0.1907894736842105
373,1149.3695823483058,0.25
374,1149.3695823483058,0.26315789473684215
375,1149.3695823483058,0.22368421052631582
376,1149.3695823483058,0.26973684210526316
377,1149.3695823483058,0.256578947368421
378,1149.3695823483058,0.23026315789473684
379,1149.3695823483058,0.23684210526315785
380,1149.3695823483058,0.24342105263157898
381,1152.1670606776988,0.32894736842105265
382,1152.1670606776988,0.3223684210526315
383,1152.1670606776988,0.3486842105263158
384,1152.1670606776988,0.35526315789473684
385,1152.1670606776988,0.3355263157894737
386,1152.1670606776988,0.3421052631578947
387,1152.1670606776988,0.3157894736842105
388,1152.1670606776988,0.29605263157894735
389,1152.1670606776988,0.2894736842105263
390,1152.1670606776988,0.2763157894736842
391,1152.1670606776988,0.3092105263157895
392,1152.1670606776988,0.3026315789473685
393,1152.1670606776988,0.26973684210526316
394,1152.1670606776988,0.2828947368421053
395,1154.9645390070923,0.381578947368421
396,1154.9645390070923,0.375
397,1154.9645390070923,0.38815789473684215
398,1154.9645390070923,0.36184210526315785
399,1154.9645390070923,0.35526315789473684
400,1154.9645390070923,0.368421052631579
401,1157.7620173364853,0.4078947368421053
402,1157.7620173364853,0.38815789473684215
403,1157.7620173364853,0.4013157894736842
404,1157.7620173364853,0.4144736842105263
405,1157.7620173364853,0.39473684210526316
406,1160.5594956658788,0.4276315789473685
407,1160.5594956658788,0.4144736842105263
408,1160.5594956658788,0.42105263157894735
409,1163.3569739952718,0.4144736842105263
410,1163.3569739952718,0.42105263157894735
411,1163.3569739952718,0.4276315789473685
412,1166.1544523246653,0.4144736842105263
413,1166.1544523246653,0.381578947368421
414,1166.1544523246653,0.4078947368421053
415,1166.1544523246653,0.36184210526315785
416,1166.1544523246653,0.375
417,1166.1544523246653,0.38815789473684215
418,1166.1544523246653,0.4013157894736842
419,1166.1544523246653,0.368421052631579
420,1166.1544523246653,0.39473684210526316
421,1168.9519306540583,0.3421052631578947
422,1168.9519306540583,0.36184210526315785
423,1168.9519306540583,0.35526315789473684
424,1168.9519306540583,0.3355263157894737
425,1168.9519306540583,0.3486842105263158
426,1171.7494089834518,0.32894736842105265
427,1171.7494089834518,0.3157894736842105
428,1171.7494089834518,0.3092105263157895
429,1171.7494089834518,0.3223684210526315
430,1171.7494089834518,0.3355263157894737
431,1171.7494089834518,0.2828947368421053
432,1171.7494089834518,0.3026315789473685
433,1171.7494089834518,0.2894736842105263
434,1171.7494089834518,0.29605263157894735
435,1171.7494089834518,0.2763157894736842
436,1174.5468873128448,0.2763157894736842
437,1174.5468873128448,0.26315789473684215
438,1174.5468873128448,0.26973684210526316
439,1174.5468873128448,0.25
440,1174.5468873128448,0.256578947368421
441,1177.3443656422378,0.24342105263157898
442,1177.3443656422378,0.20394736842105265
443,1177.3443656422378,0.21052631578947367
444,1177.3443656422378,0.23684210526315785
445,1177.3443656422378,0.25
446,1177.3443656422378,0.23026315789473684
447,1177.3443656422378,0.22368421052631582
448,1177.3443656422378,0.2171052631578947
449,1180.1418439716313,0.1907894736842105
450,1180.1418439716313,0.1842105263157895
451,1180.1418439716313,0.19736842105263153
452,1180.1418439716313,0.20394736842105265
453,1182.9393223010243,0.17763157894736847
454,1182.9393223010243,0.1842105263157895
455,1182.9393223010243,0.17105263157894735
456,1185.7368006304177,0.16447368421052633
457,1185.7368006304177,0.17105263157894735
458,1185.7368006304177,0.1578947368421053
459,1185.7368006304177,0.15131578947368418
460,1185.7368006304177,0.14473684210526316
461,1188.5342789598108,0.13815789473684215
462,1188.5342789598108,0.14473684210526316
