,wavenumbers,absorbance
0,452.797478329393,0.019736842105263164
1,452.797478329393,0.02631578947368418
2,455.5949566587865,0.02631578947368418
3,458.3924349881795,0.02631578947368418
4,458.3924349881795,0.03289473684210531
5,461.189913317573,0.03289473684210531
6,463.987391646966,0.03289473684210531
7,466.78486997635946,0.03289473684210531
8,469.5823483057525,0.03289473684210531
9,472.37982663514595,0.03289473684210531
10,475.17730496453896,0.03289473684210531
11,475.17730496453896,0.03947368421052633
12,477.97478329393243,0.03947368421052633
13,480.77226162332545,0.03947368421052633
14,483.56973995271846,0.03289473684210531
15,483.56973995271846,0.03947368421052633
16,486.36721828211193,0.03289473684210531
17,486.36721828211193,0.02631578947368418
18,489.16469661150495,0.02631578947368418
19,491.9621749408984,0.02631578947368418
20,494.75965327029144,0.02631578947368418
21,497.5571315996849,0.02631578947368418
22,497.5571315996849,0.019736842105263164
23,500.3546099290779,0.019736842105263164
24,503.1520882584714,0.019736842105263164
25,505.9495665878644,0.019736842105263164
26,508.7470449172579,0.019736842105263164
27,511.5445232466509,0.019736842105263164
28,514.3420015760439,0.019736842105263164
29,517.1394799054374,0.019736842105263164
30,519.9369582348304,0.019736842105263164
31,522.7344365642239,0.019736842105263164
32,525.5319148936169,0.019736842105263164
33,528.3293932230104,0.019736842105263164
34,531.1268715524034,0.019736842105263164
35,533.9243498817968,0.019736842105263164
36,536.7218282111899,0.019736842105263164
37,539.5193065405833,0.019736842105263164
38,542.3167848699763,0.019736842105263164
39,545.1142631993694,0.02631578947368418
40,545.1142631993694,0.019736842105263164
41,547.9117415287628,0.02631578947368418
42,550.7092198581558,0.02631578947368418
43,553.5066981875493,0.019736842105263164
44,553.5066981875493,0.02631578947368418
45,559.1016548463358,0.019736842105263164
46,561.8991331757288,0.019736842105263164
47,564.6966115051223,0.019736842105263164
48,567.4940898345153,0.019736842105263164
49,570.2915681639088,0.019736842105263164
50,573.0890464933018,0.019736842105263164
51,575.8865248226948,0.019736842105263164
52,578.6840031520883,0.02631578947368418
53,578.6840031520883,0.019736842105263164
54,581.4814814814813,0.02631578947368418
55,584.2789598108748,0.02631578947368418
56,587.0764381402678,0.02631578947368418
57,589.8739164696613,0.02631578947368418
58,592.6713947990543,0.019736842105263164
59,592.6713947990543,0.02631578947368418
60,595.4688731284477,0.019736842105263164
61,598.2663514578408,0.019736842105263164
62,601.0638297872342,0.019736842105263164
63,603.8613081166272,0.019736842105263164
64,606.6587864460207,0.02631578947368418
65,606.6587864460207,0.019736842105263164
66,609.4562647754137,0.02631578947368418
67,612.2537431048067,0.02631578947368418
68,615.0512214342002,0.02631578947368418
69,617.8486997635932,0.02631578947368418
70,620.6461780929867,0.02631578947368418
71,623.4436564223797,0.02631578947368418
72,626.2411347517732,0.02631578947368418
73,629.0386130811662,0.02631578947368418
74,631.8360914105597,0.02631578947368418
75,634.6335697399527,0.02631578947368418
76,637.4310480693462,0.02631578947368418
77,640.2285263987392,0.02631578947368418
78,643.0260047281322,0.02631578947368418
79,645.8234830575257,0.02631578947368418
80,648.6209613869187,0.02631578947368418
81,651.4184397163122,0.02631578947368418
82,654.2159180457052,0.02631578947368418
83,657.0133963750986,0.02631578947368418
84,659.8108747044917,0.019736842105263164
85,659.8108747044917,0.02631578947368418
86,662.6083530338851,0.019736842105263164
87,665.4058313632781,0.019736842105263164
88,668.2033096926716,0.019736842105263164
89,671.0007880220646,0.019736842105263164
90,673.7982663514576,0.019736842105263164
91,676.5957446808511,0.019736842105263164
92,679.3932230102441,0.019736842105263164
93,682.1907013396376,0.019736842105263164
94,684.9881796690306,0.019736842105263164
95,687.7856579984241,0.019736842105263164
96,687.7856579984241,0.02631578947368418
97,690.5831363278171,0.02631578947368418
98,693.3806146572106,0.02631578947368418
99,696.1780929866036,0.02631578947368418
100,698.9755713159971,0.019736842105263164
101,698.9755713159971,0.02631578947368418
102,701.7730496453901,0.019736842105263164
103,704.5705279747831,0.019736842105263164
104,707.3680063041766,0.019736842105263164
105,710.1654846335696,0.019736842105263164
106,712.962962962963,0.019736842105263164
107,715.7604412923561,0.019736842105263164
108,718.5579196217495,0.02631578947368418
109,718.5579196217495,0.019736842105263164
110,721.3553979511425,0.02631578947368418
111,724.152876280536,0.03947368421052633
112,724.152876280536,0.03289473684210531
113,724.152876280536,0.02631578947368418
114,726.950354609929,0.03947368421052633
115,726.950354609929,0.046052631578947345
116,729.7478329393225,0.046052631578947345
117,732.5453112687155,0.046052631578947345
118,732.5453112687155,0.03947368421052633
119,735.3427895981085,0.03947368421052633
120,738.140267927502,0.03947368421052633
121,738.140267927502,0.046052631578947345
122,740.937746256895,0.05921052631578949
123,740.937746256895,0.052631578947368474
124,740.937746256895,0.046052631578947345
125,740.937746256895,0.06578947368421051
126,743.7352245862885,0.07894736842105265
127,743.7352245862885,0.08552631578947367
128,743.7352245862885,0.10526315789473684
129,743.7352245862885,0.09868421052631582
130,743.7352245862885,0.09210526315789469
131,743.7352245862885,0.11184210526315785
132,743.7352245862885,0.06578947368421051
133,743.7352245862885,0.07236842105263153
134,746.5327029156815,0.11184210526315785
135,746.5327029156815,0.10526315789473684
136,749.330181245075,0.08552631578947367
137,749.330181245075,0.09210526315789469
138,749.330181245075,0.09868421052631582
139,749.330181245075,0.07894736842105265
140,749.330181245075,0.10526315789473684
141,752.127659574468,0.07236842105263153
142,752.127659574468,0.07894736842105265
143,752.127659574468,0.06578947368421051
144,754.9251379038615,0.06578947368421051
145,754.9251379038615,0.05921052631578949
146,757.7226162332545,0.052631578947368474
147,757.7226162332545,0.05921052631578949
148,760.520094562648,0.052631578947368474
149,763.317572892041,0.052631578947368474
150,763.317572892041,0.046052631578947345
151,766.115051221434,0.046052631578947345
152,768.9125295508275,0.046052631578947345
153,768.9125295508275,0.03947368421052633
154,771.7100078802205,0.03947368421052633
155,774.507486209614,0.03289473684210531
156,774.507486209614,0.03947368421052633
157,777.304964539007,0.03289473684210531
158,777.304964539007,0.02631578947368418
159,780.1024428684004,0.02631578947368418
160,782.8999211977934,0.02631578947368418
161,785.6973995271869,0.02631578947368418
162,785.6973995271869,0.019736842105263164
163,788.4948778565799,0.019736842105263164
164,791.2923561859734,0.019736842105263164
165,794.0898345153664,0.02631578947368418
166,794.0898345153664,0.019736842105263164
167,796.8873128447594,0.02631578947368418
168,799.6847911741529,0.03289473684210531
169,799.6847911741529,0.02631578947368418
170,802.4822695035459,0.03289473684210531
171,805.2797478329394,0.03289473684210531
172,805.2797478329394,0.03947368421052633
173,808.0772261623324,0.03947368421052633
174,808.0772261623324,0.03289473684210531
175,810.8747044917259,0.03289473684210531
176,810.8747044917259,0.02631578947368418
177,813.6721828211189,0.02631578947368418
178,816.4696611505124,0.02631578947368418
179,819.2671394799054,0.02631578947368418
180,819.2671394799054,0.03289473684210531
181,819.2671394799054,0.03947368421052633
182,822.0646178092989,0.03947368421052633
183,824.8620961386919,0.03947368421052633
184,824.8620961386919,0.03289473684210531
185,827.6595744680849,0.03289473684210531
186,830.4570527974784,0.046052631578947345
187,830.4570527974784,0.03289473684210531
188,830.4570527974784,0.03947368421052633
189,833.2545311268714,0.052631578947368474
190,833.2545311268714,0.046052631578947345
191,836.0520094562648,0.052631578947368474
192,836.0520094562648,0.06578947368421051
193,836.0520094562648,0.05921052631578949
194,838.8494877856579,0.06578947368421051
195,841.6469661150513,0.052631578947368474
196,841.6469661150513,0.06578947368421051
197,841.6469661150513,0.05921052631578949
198,844.4444444444443,0.052631578947368474
199,847.2419227738378,0.052631578947368474
200,847.2419227738378,0.046052631578947345
201,850.0394011032308,0.046052631578947345
202,850.0394011032308,0.03947368421052633
203,852.8368794326243,0.03947368421052633
204,852.8368794326243,0.03289473684210531
205,855.6343577620173,0.03289473684210531
206,858.4318360914103,0.03289473684210531
207,861.2293144208038,0.02631578947368418
208,861.2293144208038,0.03289473684210531
209,864.0267927501968,0.02631578947368418
210,866.8242710795903,0.02631578947368418
211,869.6217494089833,0.019736842105263164
212,869.6217494089833,0.02631578947368418
213,872.4192277383768,0.019736842105263164
214,875.2167060677698,0.019736842105263164
215,878.0141843971633,0.019736842105263164
216,880.8116627265563,0.019736842105263164
217,883.6091410559497,0.019736842105263164
218,886.4066193853428,0.019736842105263164
219,886.4066193853428,0.02631578947368418
220,889.2040977147362,0.02631578947368418
221,892.0015760441293,0.02631578947368418
222,894.7990543735223,0.02631578947368418
223,897.5965327029157,0.03289473684210531
224,897.5965327029157,0.02631578947368418
225,900.3940110323088,0.03947368421052633
226,900.3940110323088,0.03289473684210531
227,903.1914893617022,0.03947368421052633
228,903.1914893617022,0.046052631578947345
229,905.9889676910952,0.046052631578947345
230,905.9889676910952,0.052631578947368474
231,908.7864460204887,0.052631578947368474
232,911.5839243498817,0.052631578947368474
233,911.5839243498817,0.046052631578947345
234,914.3814026792752,0.046052631578947345
235,917.1788810086682,0.03947368421052633
236,917.1788810086682,0.046052631578947345
237,919.9763593380617,0.03947368421052633
238,922.7738376674547,0.03947368421052633
239,925.5713159968477,0.03947368421052633
240,928.3687943262412,0.03947368421052633
241,931.1662726556342,0.046052631578947345
242,931.1662726556342,0.03947368421052633
243,933.9637509850277,0.046052631578947345
244,936.7612293144207,0.052631578947368474
245,936.7612293144207,0.046052631578947345
246,939.5587076438142,0.052631578947368474
247,942.3561859732072,0.052631578947368474
248,942.3561859732072,0.05921052631578949
249,945.1536643026006,0.06578947368421051
250,945.1536643026006,0.05921052631578949
251,947.9511426319937,0.07236842105263153
252,947.9511426319937,0.06578947368421051
253,950.7486209613871,0.07894736842105265
254,950.7486209613871,0.07236842105263153
255,953.5460992907801,0.07894736842105265
256,953.5460992907801,0.09210526315789469
257,953.5460992907801,0.08552631578947367
258,956.3435776201732,0.09210526315789469
259,956.3435776201732,0.09868421052631582
260,959.1410559495666,0.09868421052631582
261,959.1410559495666,0.10526315789473684
262,961.9385342789597,0.11184210526315785
263,961.9385342789597,0.10526315789473684
264,964.7360126083531,0.10526315789473684
265,964.7360126083531,0.11184210526315785
266,967.5334909377461,0.09868421052631582
267,967.5334909377461,0.10526315789473684
268,967.5334909377461,0.09210526315789469
269,970.3309692671396,0.09210526315789469
270,973.1284475965326,0.10526315789473684
271,973.1284475965326,0.09868421052631582
272,973.1284475965326,0.09210526315789469
273,975.9259259259261,0.11184210526315785
274,975.9259259259261,0.10526315789473684
275,978.7234042553191,0.11184210526315785
276,978.7234042553191,0.11842105263157898
277,978.7234042553191,0.125
278,981.5208825847126,0.125
279,981.5208825847126,0.13157894736842102
280,984.3183609141056,0.13157894736842102
281,987.1158392434986,0.13157894736842102
282,989.9133175728921,0.13157894736842102
283,989.9133175728921,0.125
284,992.7107959022851,0.11184210526315785
285,992.7107959022851,0.125
286,992.7107959022851,0.09868421052631582
287,992.7107959022851,0.10526315789473684
288,992.7107959022851,0.11842105263157898
289,995.5082742316786,0.09868421052631582
290,995.5082742316786,0.08552631578947367
291,995.5082742316786,0.09210526315789469
292,998.3057525610716,0.05921052631578949
293,998.3057525610716,0.06578947368421051
294,998.3057525610716,0.07236842105263153
295,998.3057525610716,0.07894736842105265
296,998.3057525610716,0.08552631578947367
297,998.3057525610716,0.052631578947368474
298,1001.103230890465,0.052631578947368474
299,1001.103230890465,0.046052631578947345
300,1003.9007092198581,0.046052631578947345
301,1003.9007092198581,0.03289473684210531
302,1003.9007092198581,0.03947368421052633
303,1006.6981875492515,0.03289473684210531
304,1009.4956658786446,0.03289473684210531
305,1012.293144208038,0.03289473684210531
306,1015.090622537431,0.03289473684210531
307,1017.8881008668241,0.03289473684210531
308,1020.6855791962175,0.03289473684210531
309,1023.4830575256105,0.03289473684210531
310,1026.280535855004,0.03289473684210531
311,1029.078014184397,0.03289473684210531
312,1031.8754925137905,0.03289473684210531
313,1034.6729708431835,0.03289473684210531
314,1034.6729708431835,0.03947368421052633
315,1037.470449172577,0.03947368421052633
316,1040.26792750197,0.03947368421052633
317,1043.0654058313635,0.03947368421052633
318,1045.8628841607565,0.03947368421052633
319,1048.6603624901495,0.03947368421052633
320,1048.6603624901495,0.046052631578947345
321,1048.6603624901495,0.052631578947368474
322,1051.457840819543,0.05921052631578949
323,1051.457840819543,0.052631578947368474
324,1051.457840819543,0.06578947368421051
325,1054.255319148936,0.08552631578947367
326,1054.255319148936,0.06578947368421051
327,1054.255319148936,0.07894736842105265
328,1054.255319148936,0.09210526315789469
329,1054.255319148936,0.07236842105263153
330,1057.0527974783295,0.09210526315789469
331,1059.8502758077225,0.09868421052631582
332,1059.8502758077225,0.09210526315789469
333,1062.647754137116,0.09868421052631582
334,1062.647754137116,0.09210526315789469
335,1065.445232466509,0.08552631578947367
336,1065.445232466509,0.09210526315789469
337,1068.2427107959024,0.08552631578947367
338,1071.0401891252955,0.08552631578947367
339,1073.837667454689,0.07894736842105265
340,1073.837667454689,0.08552631578947367
341,1076.635145784082,0.07894736842105265
342,1079.432624113475,0.07894736842105265
343,1082.2301024428684,0.07894736842105265
344,1085.0275807722614,0.08552631578947367
345,1085.0275807722614,0.07894736842105265
346,1087.825059101655,0.08552631578947367
347,1090.622537431048,0.08552631578947367
348,1093.4200157604414,0.08552631578947367
349,1093.4200157604414,0.09210526315789469
350,1096.2174940898344,0.09868421052631582
351,1096.2174940898344,0.09210526315789469
352,1099.014972419228,0.09868421052631582
353,1099.014972419228,0.10526315789473684
354,1101.812450748621,0.10526315789473684
355,1101.812450748621,0.11184210526315785
356,1104.6099290780144,0.11184210526315785
357,1104.6099290780144,0.125
358,1104.6099290780144,0.11842105263157898
359,1107.4074074074074,0.125
360,1107.4074074074074,0.13157894736842102
361,1110.2048857368004,0.14473684210526316
362,1110.2048857368004,0.13815789473684215
363,1110.2048857368004,0.15131578947368418
364,1110.2048857368004,0.13157894736842102
365,1113.0023640661939,0.15131578947368418
366,1113.0023640661939,0.1578947368421053
367,1115.799842395587,0.17763157894736847
368,1115.799842395587,0.17105263157894735
369,1115.799842395587,0.16447368421052633
370,1115.799842395587,0.1578947368421053
371,1118.5973207249804,0.1842105263157895
372,1118.5973207249804,0.17763157894736847
373,1118.5973207249804,0.1907894736842105
374,1121.3947990543734,0.19736842105263153
375,1121.3947990543734,0.20394736842105265
376,1121.3947990543734,0.1907894736842105
377,1121.3947990543734,0.21052631578947367
378,1121.3947990543734,0.2171052631578947
379,1124.1922773837669,0.23684210526315785
380,1124.1922773837669,0.2171052631578947
381,1124.1922773837669,0.23026315789473684
382,1124.1922773837669,0.22368421052631582
383,1126.9897557131599,0.24342105263157898
384,1126.9897557131599,0.23684210526315785
385,1126.9897557131599,0.256578947368421
386,1126.9897557131599,0.25
387,1129.7872340425533,0.2763157894736842
388,1129.7872340425533,0.3157894736842105
389,1129.7872340425533,0.3026315789473685
390,1129.7872340425533,0.3223684210526315
391,1129.7872340425533,0.3092105263157895
392,1129.7872340425533,0.2894736842105263
393,1129.7872340425533,0.2828947368421053
394,1129.7872340425533,0.256578947368421
395,1129.7872340425533,0.26315789473684215
396,1129.7872340425533,0.26973684210526316
397,1129.7872340425533,0.29605263157894735
398,1132.5847123719464,0.3486842105263158
399,1132.5847123719464,0.3223684210526315
400,1132.5847123719464,0.3355263157894737
401,1132.5847123719464,0.3421052631578947
402,1132.5847123719464,0.36184210526315785
403,1132.5847123719464,0.35526315789473684
404,1132.5847123719464,0.32894736842105265
405,1135.3821907013398,0.38815789473684215
406,1135.3821907013398,0.4144736842105263
407,1135.3821907013398,0.36184210526315785
408,1135.3821907013398,0.4605263157894737
409,1135.3821907013398,0.368421052631579
410,1135.3821907013398,0.4078947368421053
411,1135.3821907013398,0.4473684210526315
412,1135.3821907013398,0.4013157894736842
413,1135.3821907013398,0.4342105263157895
414,1135.3821907013398,0.42105263157894735
415,1135.3821907013398,0.4276315789473685
416,1135.3821907013398,0.39473684210526316
417,1135.3821907013398,0.45394736842105265
418,1135.3821907013398,0.375
419,1135.3821907013398,0.381578947368421
420,1135.3821907013398,0.4407894736842105
421,1138.1796690307328,0.4605263157894737
422,1138.1796690307328,0.5197368421052632
423,1138.1796690307328,0.48026315789473684
424,1138.1796690307328,0.513157894736842
425,1138.1796690307328,0.506578947368421
426,1138.1796690307328,0.4736842105263158
427,1138.1796690307328,0.5
428,1138.1796690307328,0.493421052631579
429,1138.1796690307328,0.48684210526315785
430,1138.1796690307328,0.4671052631578947
431,1140.9771473601263,0.5197368421052632
432,1140.9771473601263,0.5263157894736843
433,1140.9771473601263,0.5394736842105263
434,1140.9771473601263,0.5460526315789473
435,1140.9771473601263,0.5526315789473684
436,1140.9771473601263,0.5592105263157895
437,1140.9771473601263,0.5657894736842105
438,1140.9771473601263,0.5723684210526316
439,1140.9771473601263,0.5328947368421053
440,1140.9771473601263,0.5789473684210527
441,1140.9771473601263,0.5986842105263157
442,1140.9771473601263,0.611842105263158
443,1140.9771473601263,0.5921052631578947
444,1140.9771473601263,0.5855263157894737
445,1140.9771473601263,0.618421052631579
446,1140.9771473601263,0.6052631578947368
447,1140.9771473601263,0.625
448,1143.7746256895193,0.625
449,1143.7746256895193,0.6513157894736843
450,1143.7746256895193,0.6578947368421053
451,1143.7746256895193,0.6447368421052632
452,1143.7746256895193,0.638157894736842
453,1143.7746256895193,0.631578947368421
454,1146.5721040189123,0.638157894736842
455,1146.5721040189123,0.6513157894736843
456,1146.5721040189123,0.6447368421052632
457,1146.5721040189123,0.625
458,1146.5721040189123,0.631578947368421
459,1146.5721040189123,0.6578947368421053
460,1149.3695823483058,0.5986842105263157
461,1149.3695823483058,0.5657894736842105
462,1149.3695823483058,0.5789473684210527
463,1149.3695823483058,0.625
464,1149.3695823483058,0.5723684210526316
465,1149.3695823483058,0.5855263157894737
466,1149.3695823483058,0.618421052631579
467,1149.3695823483058,0.6052631578947368
