,wavenumbers,absorbance
0,452.797478329393,0.019736842105263164
1,455.5949566587865,0.019736842105263164
2,458.3924349881795,0.019736842105263164
3,461.189913317573,0.019736842105263164
4,463.987391646966,0.019736842105263164
5,466.78486997635946,0.02631578947368418
6,466.78486997635946,0.019736842105263164
7,469.5823483057525,0.019736842105263164
8,469.5823483057525,0.02631578947368418
9,472.37982663514595,0.019736842105263164
10,475.17730496453896,0.019736842105263164
11,477.97478329393243,0.019736842105263164
12,477.97478329393243,0.02631578947368418
13,480.77226162332545,0.02631578947368418
14,483.56973995271846,0.02631578947368418
15,483.56973995271846,0.019736842105263164
16,486.36721828211193,0.02631578947368418
17,489.16469661150495,0.02631578947368418
18,491.9621749408984,0.02631578947368418
19,494.75965327029144,0.02631578947368418
20,497.5571315996849,0.02631578947368418
21,500.3546099290779,0.02631578947368418
22,503.1520882584714,0.02631578947368418
23,505.9495665878644,0.02631578947368418
24,508.7470449172579,0.02631578947368418
25,511.5445232466509,0.02631578947368418
26,514.3420015760439,0.02631578947368418
27,517.1394799054374,0.02631578947368418
28,519.9369582348304,0.02631578947368418
29,519.9369582348304,0.03289473684210531
30,522.7344365642239,0.03289473684210531
31,525.5319148936169,0.03289473684210531
32,528.3293932230104,0.03289473684210531
33,531.1268715524034,0.03289473684210531
34,533.9243498817968,0.03289473684210531
35,536.7218282111899,0.03289473684210531
36,539.5193065405833,0.03289473684210531
37,542.3167848699763,0.03289473684210531
38,545.1142631993694,0.03289473684210531
39,547.9117415287628,0.03289473684210531
40,550.7092198581558,0.03289473684210531
41,553.5066981875493,0.03289473684210531
42,556.3041765169423,0.03289473684210531
43,559.1016548463358,0.03289473684210531
44,561.8991331757288,0.03289473684210531
45,564.6966115051223,0.03289473684210531
46,567.4940898345153,0.03289473684210531
47,570.2915681639088,0.03289473684210531
48,573.0890464933018,0.03289473684210531
49,575.8865248226948,0.03289473684210531
50,578.6840031520883,0.03289473684210531
51,581.4814814814813,0.03289473684210531
52,584.2789598108748,0.03289473684210531
53,587.0764381402678,0.03289473684210531
54,587.0764381402678,0.03947368421052633
55,589.8739164696613,0.03947368421052633
56,592.6713947990543,0.03947368421052633
57,595.4688731284477,0.046052631578947345
58,595.4688731284477,0.03947368421052633
59,598.2663514578408,0.046052631578947345
60,598.2663514578408,0.052631578947368474
61,601.0638297872342,0.06578947368421051
62,601.0638297872342,0.05921052631578949
63,601.0638297872342,0.07236842105263153
64,601.0638297872342,0.052631578947368474
65,603.8613081166272,0.07236842105263153
66,603.8613081166272,0.07894736842105265
67,606.6587864460207,0.07236842105263153
68,606.6587864460207,0.06578947368421051
69,606.6587864460207,0.07894736842105265
70,609.4562647754137,0.06578947368421051
71,609.4562647754137,0.052631578947368474
72,609.4562647754137,0.05921052631578949
73,612.2537431048067,0.046052631578947345
74,612.2537431048067,0.052631578947368474
75,615.0512214342002,0.046052631578947345
76,615.0512214342002,0.03947368421052633
77,617.8486997635932,0.03947368421052633
78,617.8486997635932,0.046052631578947345
79,620.6461780929867,0.046052631578947345
80,623.4436564223797,0.046052631578947345
81,626.2411347517732,0.046052631578947345
82,629.0386130811662,0.046052631578947345
83,631.8360914105597,0.046052631578947345
84,631.8360914105597,0.03947368421052633
85,634.6335697399527,0.046052631578947345
86,637.4310480693462,0.046052631578947345
87,640.2285263987392,0.046052631578947345
88,643.0260047281322,0.046052631578947345
89,643.0260047281322,0.03947368421052633
90,645.8234830575257,0.03947368421052633
91,648.6209613869187,0.03947368421052633
92,651.4184397163122,0.03947368421052633
93,654.2159180457052,0.03947368421052633
94,657.0133963750986,0.03947368421052633
95,659.8108747044917,0.03947368421052633
96,662.6083530338851,0.03947368421052633
97,665.4058313632781,0.03947368421052633
98,668.2033096926716,0.03947368421052633
99,671.0007880220646,0.03947368421052633
100,673.7982663514576,0.03947368421052633
101,676.5957446808511,0.03947368421052633
102,679.3932230102441,0.03947368421052633
103,682.1907013396376,0.03947368421052633
104,682.1907013396376,0.046052631578947345
105,684.9881796690306,0.046052631578947345
106,687.7856579984241,0.046052631578947345
107,690.5831363278171,0.046052631578947345
108,690.5831363278171,0.052631578947368474
109,693.3806146572106,0.052631578947368474
110,693.3806146572106,0.05921052631578949
111,693.3806146572106,0.06578947368421051
112,696.1780929866036,0.07236842105263153
113,696.1780929866036,0.06578947368421051
114,698.9755713159971,0.07894736842105265
115,698.9755713159971,0.08552631578947367
116,698.9755713159971,0.07236842105263153
117,701.7730496453901,0.09868421052631582
118,701.7730496453901,0.08552631578947367
119,701.7730496453901,0.09210526315789469
120,704.5705279747831,0.11184210526315785
121,704.5705279747831,0.09868421052631582
122,704.5705279747831,0.10526315789473684
123,707.3680063041766,0.14473684210526316
124,707.3680063041766,0.1578947368421053
125,707.3680063041766,0.125
126,707.3680063041766,0.13157894736842102
127,707.3680063041766,0.15131578947368418
128,707.3680063041766,0.11842105263157898
129,707.3680063041766,0.13815789473684215
130,710.1654846335696,0.19736842105263153
131,710.1654846335696,0.17763157894736847
132,710.1654846335696,0.20394736842105265
133,710.1654846335696,0.1842105263157895
134,710.1654846335696,0.1578947368421053
135,710.1654846335696,0.16447368421052633
136,710.1654846335696,0.17105263157894735
137,710.1654846335696,0.1907894736842105
138,712.962962962963,0.29605263157894735
139,712.962962962963,0.381578947368421
140,712.962962962963,0.3092105263157895
141,712.962962962963,0.2763157894736842
142,712.962962962963,0.2171052631578947
143,712.962962962963,0.21052631578947367
144,712.962962962963,0.3421052631578947
145,712.962962962963,0.39473684210526316
146,712.962962962963,0.38815789473684215
147,712.962962962963,0.24342105263157898
148,712.962962962963,0.3355263157894737
149,712.962962962963,0.2894736842105263
150,712.962962962963,0.256578947368421
151,712.962962962963,0.2828947368421053
152,712.962962962963,0.4013157894736842
153,712.962962962963,0.23026315789473684
154,712.962962962963,0.3157894736842105
155,712.962962962963,0.22368421052631582
156,712.962962962963,0.32894736842105265
157,712.962962962963,0.23684210526315785
158,712.962962962963,0.375
159,712.962962962963,0.3223684210526315
160,712.962962962963,0.368421052631579
161,712.962962962963,0.25
162,712.962962962963,0.35526315789473684
163,712.962962962963,0.26315789473684215
164,712.962962962963,0.3026315789473685
165,712.962962962963,0.3486842105263158
166,712.962962962963,0.26973684210526316
167,712.962962962963,0.20394736842105265
168,712.962962962963,0.36184210526315785
169,715.7604412923561,0.4078947368421053
170,715.7604412923561,0.4144736842105263
171,715.7604412923561,0.42105263157894735
172,715.7604412923561,0.4013157894736842
173,718.5579196217495,0.3355263157894737
174,718.5579196217495,0.42105263157894735
175,718.5579196217495,0.38815789473684215
176,718.5579196217495,0.36184210526315785
177,718.5579196217495,0.39473684210526316
178,718.5579196217495,0.4144736842105263
179,718.5579196217495,0.2894736842105263
180,718.5579196217495,0.35526315789473684
181,718.5579196217495,0.32894736842105265
182,718.5579196217495,0.2828947368421053
183,718.5579196217495,0.29605263157894735
184,718.5579196217495,0.375
185,718.5579196217495,0.3486842105263158
186,718.5579196217495,0.3026315789473685
187,718.5579196217495,0.2763157894736842
188,718.5579196217495,0.4013157894736842
189,718.5579196217495,0.4078947368421053
190,718.5579196217495,0.3157894736842105
191,718.5579196217495,0.3223684210526315
192,718.5579196217495,0.381578947368421
193,718.5579196217495,0.368421052631579
194,718.5579196217495,0.3421052631578947
195,718.5579196217495,0.3092105263157895
196,721.3553979511425,0.2763157894736842
197,721.3553979511425,0.26973684210526316
198,721.3553979511425,0.26315789473684215
199,721.3553979511425,0.256578947368421
200,724.152876280536,0.256578947368421
201,724.152876280536,0.3157894736842105
202,724.152876280536,0.2828947368421053
203,724.152876280536,0.32894736842105265
204,724.152876280536,0.2894736842105263
205,724.152876280536,0.26973684210526316
206,724.152876280536,0.26315789473684215
207,724.152876280536,0.3223684210526315
208,724.152876280536,0.29605263157894735
209,724.152876280536,0.3026315789473685
210,724.152876280536,0.3092105263157895
211,724.152876280536,0.2763157894736842
212,726.950354609929,0.26973684210526316
213,726.950354609929,0.3223684210526315
214,726.950354609929,0.3157894736842105
215,726.950354609929,0.29605263157894735
216,726.950354609929,0.32894736842105265
217,726.950354609929,0.3092105263157895
218,726.950354609929,0.3026315789473685
219,726.950354609929,0.2763157894736842
220,726.950354609929,0.2894736842105263
221,726.950354609929,0.26315789473684215
222,726.950354609929,0.256578947368421
223,726.950354609929,0.2828947368421053
224,729.7478329393225,0.15131578947368418
225,729.7478329393225,0.16447368421052633
226,729.7478329393225,0.23684210526315785
227,729.7478329393225,0.1907894736842105
228,729.7478329393225,0.17763157894736847
229,729.7478329393225,0.256578947368421
230,729.7478329393225,0.23026315789473684
231,729.7478329393225,0.17105263157894735
232,729.7478329393225,0.25
233,729.7478329393225,0.22368421052631582
234,729.7478329393225,0.24342105263157898
235,729.7478329393225,0.1578947368421053
236,729.7478329393225,0.1842105263157895
237,729.7478329393225,0.19736842105263153
238,729.7478329393225,0.21052631578947367
239,729.7478329393225,0.20394736842105265
240,729.7478329393225,0.2171052631578947
241,732.5453112687155,0.09210526315789469
242,732.5453112687155,0.09868421052631582
243,732.5453112687155,0.13815789473684215
244,732.5453112687155,0.11842105263157898
245,732.5453112687155,0.13157894736842102
246,732.5453112687155,0.15131578947368418
247,732.5453112687155,0.10526315789473684
248,732.5453112687155,0.11184210526315785
249,732.5453112687155,0.125
250,732.5453112687155,0.14473684210526316
251,735.3427895981085,0.07894736842105265
252,735.3427895981085,0.09210526315789469
253,735.3427895981085,0.08552631578947367
254,738.140267927502,0.07894736842105265
255,738.140267927502,0.07236842105263153
256,740.937746256895,0.06578947368421051
257,740.937746256895,0.07236842105263153
258,743.7352245862885,0.05921052631578949
259,743.7352245862885,0.06578947368421051
260,746.5327029156815,0.05921052631578949
261,749.330181245075,0.05921052631578949
262,752.127659574468,0.05921052631578949
263,754.9251379038615,0.05921052631578949
264,757.7226162332545,0.05921052631578949
265,757.7226162332545,0.052631578947368474
266,760.520094562648,0.052631578947368474
267,763.317572892041,0.052631578947368474
268,766.115051221434,0.052631578947368474
269,768.9125295508275,0.052631578947368474
270,771.7100078802205,0.052631578947368474
271,774.507486209614,0.052631578947368474
272,777.304964539007,0.052631578947368474
273,780.1024428684004,0.052631578947368474
274,782.8999211977934,0.046052631578947345
275,782.8999211977934,0.052631578947368474
276,785.6973995271869,0.046052631578947345
277,788.4948778565799,0.046052631578947345
278,791.2923561859734,0.052631578947368474
279,791.2923561859734,0.046052631578947345
280,794.0898345153664,0.052631578947368474
281,796.8873128447594,0.052631578947368474
282,799.6847911741529,0.052631578947368474
283,802.4822695035459,0.052631578947368474
284,805.2797478329394,0.052631578947368474
285,808.0772261623324,0.052631578947368474
286,810.8747044917259,0.052631578947368474
287,813.6721828211189,0.052631578947368474
288,816.4696611505124,0.052631578947368474
289,819.2671394799054,0.046052631578947345
290,819.2671394799054,0.052631578947368474
291,822.0646178092989,0.046052631578947345
292,824.8620961386919,0.046052631578947345
293,827.6595744680849,0.046052631578947345
294,830.4570527974784,0.052631578947368474
295,830.4570527974784,0.046052631578947345
296,833.2545311268714,0.052631578947368474
297,836.0520094562648,0.052631578947368474
298,838.8494877856579,0.052631578947368474
299,841.6469661150513,0.052631578947368474
300,844.4444444444443,0.052631578947368474
301,847.2419227738378,0.052631578947368474
302,850.0394011032308,0.052631578947368474
303,852.8368794326243,0.052631578947368474
304,855.6343577620173,0.052631578947368474
305,858.4318360914103,0.05921052631578949
306,858.4318360914103,0.052631578947368474
307,861.2293144208038,0.05921052631578949
308,864.0267927501968,0.05921052631578949
309,866.8242710795903,0.05921052631578949
310,869.6217494089833,0.05921052631578949
311,872.4192277383768,0.05921052631578949
312,875.2167060677698,0.05921052631578949
313,878.0141843971633,0.05921052631578949
314,880.8116627265563,0.05921052631578949
315,880.8116627265563,0.06578947368421051
316,883.6091410559497,0.06578947368421051
317,886.4066193853428,0.06578947368421051
318,889.2040977147362,0.06578947368421051
319,892.0015760441293,0.05921052631578949
320,892.0015760441293,0.06578947368421051
321,894.7990543735223,0.05921052631578949
322,897.5965327029157,0.05921052631578949
323,900.3940110323088,0.05921052631578949
324,903.1914893617022,0.05921052631578949
325,905.9889676910952,0.05921052631578949
326,908.7864460204887,0.05921052631578949
327,911.5839243498817,0.05921052631578949
328,914.3814026792752,0.05921052631578949
329,917.1788810086682,0.06578947368421051
330,917.1788810086682,0.05921052631578949
331,919.9763593380617,0.06578947368421051
332,922.7738376674547,0.06578947368421051
333,922.7738376674547,0.07236842105263153
334,925.5713159968477,0.07894736842105265
335,925.5713159968477,0.07236842105263153
336,928.3687943262412,0.07894736842105265
337,928.3687943262412,0.08552631578947367
338,931.1662726556342,0.09210526315789469
339,931.1662726556342,0.08552631578947367
340,933.9637509850277,0.09210526315789469
341,936.7612293144207,0.09210526315789469
342,939.5587076438142,0.09210526315789469
343,942.3561859732072,0.09210526315789469
344,945.1536643026006,0.09210526315789469
345,947.9511426319937,0.09210526315789469
346,947.9511426319937,0.09868421052631582
347,950.7486209613871,0.09868421052631582
348,953.5460992907801,0.09868421052631582
349,956.3435776201732,0.09868421052631582
350,959.1410559495666,0.09868421052631582
351,961.9385342789597,0.09868421052631582
352,961.9385342789597,0.09210526315789469
353,964.7360126083531,0.09210526315789469
354,967.5334909377461,0.09210526315789469
355,967.5334909377461,0.08552631578947367
356,970.3309692671396,0.08552631578947367
357,973.1284475965326,0.08552631578947367
358,975.9259259259261,0.07894736842105265
359,975.9259259259261,0.08552631578947367
360,978.7234042553191,0.07894736842105265
361,981.5208825847126,0.07894736842105265
362,984.3183609141056,0.07894736842105265
363,987.1158392434986,0.07894736842105265
364,987.1158392434986,0.08552631578947367
365,989.9133175728921,0.08552631578947367
366,992.7107959022851,0.09210526315789469
367,992.7107959022851,0.08552631578947367
368,995.5082742316786,0.09868421052631582
369,995.5082742316786,0.09210526315789469
370,998.3057525610716,0.10526315789473684
371,998.3057525610716,0.09868421052631582
372,998.3057525610716,0.11184210526315785
373,1001.103230890465,0.125
374,1001.103230890465,0.11842105263157898
375,1001.103230890465,0.11184210526315785
376,1003.9007092198581,0.13157894736842102
377,1003.9007092198581,0.125
378,1003.9007092198581,0.1578947368421053
379,1003.9007092198581,0.13815789473684215
380,1003.9007092198581,0.15131578947368418
381,1003.9007092198581,0.14473684210526316
382,1006.6981875492515,0.17763157894736847
383,1006.6981875492515,0.16447368421052633
384,1006.6981875492515,0.17105263157894735
385,1006.6981875492515,0.1578947368421053
386,1009.4956658786446,0.19736842105263153
387,1009.4956658786446,0.21052631578947367
388,1009.4956658786446,0.17763157894736847
389,1009.4956658786446,0.23026315789473684
390,1009.4956658786446,0.1842105263157895
391,1009.4956658786446,0.2171052631578947
392,1009.4956658786446,0.20394736842105265
393,1009.4956658786446,0.1907894736842105
394,1009.4956658786446,0.22368421052631582
395,1012.293144208038,0.23684210526315785
396,1012.293144208038,0.23026315789473684
397,1012.293144208038,0.24342105263157898
398,1012.293144208038,0.25
399,1015.090622537431,0.25
400,1015.090622537431,0.256578947368421
401,1017.8881008668241,0.256578947368421
402,1017.8881008668241,0.25
403,1020.6855791962175,0.25
404,1020.6855791962175,0.23684210526315785
405,1020.6855791962175,0.23026315789473684
406,1020.6855791962175,0.24342105263157898
407,1023.4830575256105,0.19736842105263153
408,1023.4830575256105,0.20394736842105265
409,1023.4830575256105,0.2171052631578947
410,1023.4830575256105,0.23026315789473684
411,1023.4830575256105,0.21052631578947367
412,1023.4830575256105,0.1907894736842105
413,1023.4830575256105,0.22368421052631582
414,1026.280535855004,0.17763157894736847
415,1026.280535855004,0.1842105263157895
416,1026.280535855004,0.1907894736842105
417,1029.078014184397,0.1578947368421053
418,1029.078014184397,0.16447368421052633
419,1029.078014184397,0.17763157894736847
420,1029.078014184397,0.17105263157894735
421,1031.8754925137905,0.15131578947368418
422,1031.8754925137905,0.1578947368421053
423,1034.6729708431835,0.15131578947368418
424,1034.6729708431835,0.14473684210526316
425,1037.470449172577,0.14473684210526316
426,1040.26792750197,0.14473684210526316
427,1040.26792750197,0.13815789473684215
428,1043.0654058313635,0.13815789473684215
429,1043.0654058313635,0.13157894736842102
430,1045.8628841607565,0.13157894736842102
431,1048.6603624901495,0.13157894736842102
432,1048.6603624901495,0.125
433,1048.6603624901495,0.11842105263157898
434,1051.457840819543,0.11842105263157898
435,1054.255319148936,0.11184210526315785
436,1054.255319148936,0.11842105263157898
437,1057.0527974783295,0.11184210526315785
438,1059.8502758077225,0.11184210526315785
439,1062.647754137116,0.11184210526315785
440,1065.445232466509,0.11184210526315785
441,1068.2427107959024,0.10526315789473684
442,1068.2427107959024,0.11184210526315785
443,1071.0401891252955,0.10526315789473684
444,1073.837667454689,0.10526315789473684
445,1076.635145784082,0.10526315789473684
446,1079.432624113475,0.10526315789473684
447,1079.432624113475,0.09868421052631582
448,1082.2301024428684,0.09868421052631582
449,1085.0275807722614,0.09210526315789469
450,1085.0275807722614,0.09868421052631582
451,1087.825059101655,0.09210526315789469
452,1090.622537431048,0.09210526315789469
453,1093.4200157604414,0.08552631578947367
454,1093.4200157604414,0.09210526315789469
455,1096.2174940898344,0.08552631578947367
456,1099.014972419228,0.08552631578947367
457,1101.812450748621,0.08552631578947367
458,1104.6099290780144,0.08552631578947367
459,1107.4074074074074,0.08552631578947367
460,1110.2048857368004,0.09210526315789469
461,1110.2048857368004,0.08552631578947367
462,1113.0023640661939,0.09210526315789469
463,1115.799842395587,0.09210526315789469
464,1118.5973207249804,0.09210526315789469
465,1121.3947990543734,0.09868421052631582
466,1121.3947990543734,0.09210526315789469
467,1124.1922773837669,0.09868421052631582
468,1126.9897557131599,0.09868421052631582
469,1129.7872340425533,0.09868421052631582
470,1132.5847123719464,0.09868421052631582
