,wavenumbers,absorbance
0,452.797478329393,0.02631578947368418
1,455.5949566587865,0.02631578947368418
2,458.3924349881795,0.02631578947368418
3,461.189913317573,0.02631578947368418
4,463.987391646966,0.02631578947368418
5,466.78486997635946,0.02631578947368418
6,469.5823483057525,0.02631578947368418
7,472.37982663514595,0.02631578947368418
8,472.37982663514595,0.019736842105263164
9,475.17730496453896,0.019736842105263164
10,477.97478329393243,0.019736842105263164
11,480.77226162332545,0.019736842105263164
12,483.56973995271846,0.019736842105263164
13,486.36721828211193,0.019736842105263164
14,489.16469661150495,0.019736842105263164
15,491.9621749408984,0.019736842105263164
16,494.75965327029144,0.019736842105263164
17,497.5571315996849,0.019736842105263164
18,497.5571315996849,0.02631578947368418
19,500.3546099290779,0.02631578947368418
20,503.1520882584714,0.02631578947368418
21,505.9495665878644,0.02631578947368418
22,508.7470449172579,0.02631578947368418
23,511.5445232466509,0.02631578947368418
24,514.3420015760439,0.03289473684210531
25,514.3420015760439,0.02631578947368418
26,517.1394799054374,0.03289473684210531
27,519.9369582348304,0.03289473684210531
28,522.7344365642239,0.03289473684210531
29,525.5319148936169,0.02631578947368418
30,525.5319148936169,0.03289473684210531
31,528.3293932230104,0.02631578947368418
32,531.1268715524034,0.02631578947368418
33,533.9243498817968,0.02631578947368418
34,536.7218282111899,0.02631578947368418
35,539.5193065405833,0.02631578947368418
36,542.3167848699763,0.02631578947368418
37,545.1142631993694,0.02631578947368418
38,547.9117415287628,0.02631578947368418
39,550.7092198581558,0.02631578947368418
40,550.7092198581558,0.03289473684210531
41,553.5066981875493,0.03289473684210531
42,556.3041765169423,0.03289473684210531
43,559.1016548463358,0.03289473684210531
44,561.8991331757288,0.03947368421052633
45,561.8991331757288,0.03289473684210531
46,564.6966115051223,0.03947368421052633
47,567.4940898345153,0.03947368421052633
48,570.2915681639088,0.03947368421052633
49,573.0890464933018,0.03947368421052633
50,575.8865248226948,0.03947368421052633
51,575.8865248226948,0.03289473684210531
52,578.6840031520883,0.03289473684210531
53,581.4814814814813,0.03289473684210531
54,584.2789598108748,0.03289473684210531
55,587.0764381402678,0.03289473684210531
56,589.8739164696613,0.03289473684210531
57,592.6713947990543,0.03289473684210531
58,595.4688731284477,0.03289473684210531
59,598.2663514578408,0.03289473684210531
60,601.0638297872342,0.03289473684210531
61,603.8613081166272,0.03289473684210531
62,606.6587864460207,0.03289473684210531
63,606.6587864460207,0.02631578947368418
64,609.4562647754137,0.02631578947368418
65,612.2537431048067,0.02631578947368418
66,615.0512214342002,0.02631578947368418
67,617.8486997635932,0.03289473684210531
68,617.8486997635932,0.02631578947368418
69,620.6461780929867,0.03289473684210531
70,623.4436564223797,0.03289473684210531
71,626.2411347517732,0.03289473684210531
72,626.2411347517732,0.03947368421052633
73,629.0386130811662,0.046052631578947345
74,629.0386130811662,0.03947368421052633
75,631.8360914105597,0.052631578947368474
76,631.8360914105597,0.046052631578947345
77,634.6335697399527,0.052631578947368474
78,637.4310480693462,0.046052631578947345
79,637.4310480693462,0.052631578947368474
80,640.2285263987392,0.046052631578947345
81,643.0260047281322,0.03947368421052633
82,643.0260047281322,0.046052631578947345
83,645.8234830575257,0.03947368421052633
84,648.6209613869187,0.03947368421052633
85,651.4184397163122,0.03947368421052633
86,654.2159180457052,0.03947368421052633
87,657.0133963750986,0.03947368421052633
88,657.0133963750986,0.046052631578947345
89,659.8108747044917,0.046052631578947345
90,662.6083530338851,0.046052631578947345
91,662.6083530338851,0.052631578947368474
92,665.4058313632781,0.052631578947368474
93,668.2033096926716,0.052631578947368474
94,668.2033096926716,0.05921052631578949
95,671.0007880220646,0.05921052631578949
96,671.0007880220646,0.06578947368421051
97,673.7982663514576,0.06578947368421051
98,673.7982663514576,0.07236842105263153
99,676.5957446808511,0.07236842105263153
100,676.5957446808511,0.07894736842105265
101,679.3932230102441,0.08552631578947367
102,679.3932230102441,0.07894736842105265
103,682.1907013396376,0.08552631578947367
104,682.1907013396376,0.09210526315789469
105,684.9881796690306,0.09210526315789469
106,684.9881796690306,0.09868421052631582
107,687.7856579984241,0.09868421052631582
108,687.7856579984241,0.10526315789473684
109,687.7856579984241,0.11184210526315785
110,690.5831363278171,0.11184210526315785
111,693.3806146572106,0.11184210526315785
112,693.3806146572106,0.11842105263157898
113,696.1780929866036,0.11842105263157898
114,696.1780929866036,0.125
115,698.9755713159971,0.125
116,698.9755713159971,0.13157894736842102
117,701.7730496453901,0.13157894736842102
118,701.7730496453901,0.13815789473684215
119,704.5705279747831,0.14473684210526316
120,704.5705279747831,0.13815789473684215
121,707.3680063041766,0.15131578947368418
122,707.3680063041766,0.14473684210526316
123,710.1654846335696,0.1578947368421053
124,710.1654846335696,0.15131578947368418
125,712.962962962963,0.1578947368421053
126,712.962962962963,0.16447368421052633
127,712.962962962963,0.17105263157894735
128,712.962962962963,0.17763157894736847
129,715.7604412923561,0.1842105263157895
130,715.7604412923561,0.17763157894736847
131,718.5579196217495,0.1842105263157895
132,718.5579196217495,0.1907894736842105
133,721.3553979511425,0.1907894736842105
134,721.3553979511425,0.1842105263157895
135,724.152876280536,0.1842105263157895
136,724.152876280536,0.17763157894736847
137,724.152876280536,0.17105263157894735
138,726.950354609929,0.17105263157894735
139,726.950354609929,0.16447368421052633
140,729.7478329393225,0.1578947368421053
141,729.7478329393225,0.16447368421052633
142,732.5453112687155,0.15131578947368418
143,732.5453112687155,0.1578947368421053
144,735.3427895981085,0.14473684210526316
145,735.3427895981085,0.15131578947368418
146,738.140267927502,0.14473684210526316
147,738.140267927502,0.13815789473684215
148,740.937746256895,0.13815789473684215
149,743.7352245862885,0.13157894736842102
150,743.7352245862885,0.13815789473684215
151,746.5327029156815,0.13157894736842102
152,749.330181245075,0.125
153,749.330181245075,0.13157894736842102
154,752.127659574468,0.125
155,754.9251379038615,0.125
156,757.7226162332545,0.125
157,760.520094562648,0.125
158,763.317572892041,0.125
159,766.115051221434,0.125
160,766.115051221434,0.13157894736842102
161,768.9125295508275,0.13157894736842102
162,771.7100078802205,0.13157894736842102
163,771.7100078802205,0.13815789473684215
164,774.507486209614,0.14473684210526316
165,774.507486209614,0.13815789473684215
166,777.304964539007,0.14473684210526316
167,780.1024428684004,0.14473684210526316
168,780.1024428684004,0.15131578947368418
169,782.8999211977934,0.15131578947368418
170,785.6973995271869,0.15131578947368418
171,785.6973995271869,0.1578947368421053
172,788.4948778565799,0.1578947368421053
173,791.2923561859734,0.16447368421052633
174,791.2923561859734,0.1578947368421053
175,794.0898345153664,0.16447368421052633
176,794.0898345153664,0.17105263157894735
177,796.8873128447594,0.17105263157894735
178,799.6847911741529,0.17105263157894735
179,799.6847911741529,0.1842105263157895
180,799.6847911741529,0.17763157894736847
181,802.4822695035459,0.1842105263157895
182,802.4822695035459,0.1907894736842105
183,805.2797478329394,0.19736842105263153
184,805.2797478329394,0.1907894736842105
185,808.0772261623324,0.19736842105263153
186,810.8747044917259,0.19736842105263153
187,810.8747044917259,0.1907894736842105
188,813.6721828211189,0.1907894736842105
189,816.4696611505124,0.1907894736842105
190,816.4696611505124,0.1842105263157895
191,819.2671394799054,0.17105263157894735
192,819.2671394799054,0.1842105263157895
193,819.2671394799054,0.17763157894736847
194,822.0646178092989,0.16447368421052633
195,824.8620961386919,0.1578947368421053
196,824.8620961386919,0.16447368421052633
197,827.6595744680849,0.1578947368421053
198,827.6595744680849,0.15131578947368418
199,830.4570527974784,0.14473684210526316
200,830.4570527974784,0.15131578947368418
201,833.2545311268714,0.14473684210526316
202,836.0520094562648,0.13815789473684215
203,836.0520094562648,0.14473684210526316
204,838.8494877856579,0.13815789473684215
205,841.6469661150513,0.14473684210526316
206,841.6469661150513,0.13815789473684215
207,844.4444444444443,0.14473684210526316
208,847.2419227738378,0.14473684210526316
209,850.0394011032308,0.15131578947368418
210,850.0394011032308,0.14473684210526316
211,852.8368794326243,0.15131578947368418
212,852.8368794326243,0.1578947368421053
213,855.6343577620173,0.1578947368421053
214,855.6343577620173,0.16447368421052633
215,858.4318360914103,0.16447368421052633
216,861.2293144208038,0.17105263157894735
217,861.2293144208038,0.16447368421052633
218,864.0267927501968,0.17105263157894735
219,866.8242710795903,0.17105263157894735
220,869.6217494089833,0.17105263157894735
221,872.4192277383768,0.17105263157894735
222,872.4192277383768,0.16447368421052633
223,875.2167060677698,0.16447368421052633
224,878.0141843971633,0.16447368421052633
225,880.8116627265563,0.16447368421052633
226,883.6091410559497,0.16447368421052633
227,886.4066193853428,0.16447368421052633
228,889.2040977147362,0.16447368421052633
229,892.0015760441293,0.16447368421052633
230,894.7990543735223,0.17105263157894735
231,894.7990543735223,0.16447368421052633
232,897.5965327029157,0.17763157894736847
233,897.5965327029157,0.1907894736842105
234,897.5965327029157,0.17105263157894735
235,897.5965327029157,0.1842105263157895
236,900.3940110323088,0.1907894736842105
237,900.3940110323088,0.19736842105263153
238,903.1914893617022,0.19736842105263153
239,903.1914893617022,0.20394736842105265
240,903.1914893617022,0.21052631578947367
241,905.9889676910952,0.22368421052631582
242,905.9889676910952,0.21052631578947367
243,905.9889676910952,0.2171052631578947
244,908.7864460204887,0.22368421052631582
245,908.7864460204887,0.2171052631578947
246,911.5839243498817,0.21052631578947367
247,911.5839243498817,0.19736842105263153
248,911.5839243498817,0.20394736842105265
249,911.5839243498817,0.1907894736842105
250,911.5839243498817,0.2171052631578947
251,914.3814026792752,0.1907894736842105
252,914.3814026792752,0.17763157894736847
253,914.3814026792752,0.1842105263157895
254,914.3814026792752,0.17105263157894735
255,917.1788810086682,0.17105263157894735
256,917.1788810086682,0.16447368421052633
257,917.1788810086682,0.1578947368421053
258,917.1788810086682,0.15131578947368418
259,919.9763593380617,0.13815789473684215
260,919.9763593380617,0.15131578947368418
261,919.9763593380617,0.14473684210526316
262,922.7738376674547,0.13815789473684215
263,922.7738376674547,0.13157894736842102
264,925.5713159968477,0.13157894736842102
265,925.5713159968477,0.125
266,928.3687943262412,0.125
267,931.1662726556342,0.125
268,931.1662726556342,0.11842105263157898
269,933.9637509850277,0.11842105263157898
270,936.7612293144207,0.11842105263157898
271,939.5587076438142,0.11184210526315785
272,939.5587076438142,0.11842105263157898
273,942.3561859732072,0.11184210526315785
274,945.1536643026006,0.11184210526315785
275,947.9511426319937,0.11184210526315785
276,947.9511426319937,0.11842105263157898
277,950.7486209613871,0.11842105263157898
278,953.5460992907801,0.11842105263157898
279,956.3435776201732,0.11842105263157898
280,959.1410559495666,0.11842105263157898
281,961.9385342789597,0.125
282,961.9385342789597,0.11842105263157898
283,964.7360126083531,0.125
284,967.5334909377461,0.13157894736842102
285,967.5334909377461,0.125
286,970.3309692671396,0.13157894736842102
287,973.1284475965326,0.13157894736842102
288,975.9259259259261,0.13815789473684215
289,975.9259259259261,0.13157894736842102
290,978.7234042553191,0.14473684210526316
291,978.7234042553191,0.13815789473684215
292,981.5208825847126,0.14473684210526316
293,981.5208825847126,0.15131578947368418
294,984.3183609141056,0.15131578947368418
295,984.3183609141056,0.1578947368421053
296,987.1158392434986,0.16447368421052633
297,987.1158392434986,0.17105263157894735
298,987.1158392434986,0.1578947368421053
299,989.9133175728921,0.17105263157894735
300,989.9133175728921,0.16447368421052633
301,992.7107959022851,0.1578947368421053
302,992.7107959022851,0.16447368421052633
303,995.5082742316786,0.14473684210526316
304,995.5082742316786,0.1578947368421053
305,995.5082742316786,0.15131578947368418
306,998.3057525610716,0.14473684210526316
307,998.3057525610716,0.13815789473684215
308,1001.103230890465,0.13815789473684215
309,1001.103230890465,0.13157894736842102
310,1003.9007092198581,0.13157894736842102
311,1003.9007092198581,0.125
312,1006.6981875492515,0.11842105263157898
313,1006.6981875492515,0.125
314,1009.4956658786446,0.11842105263157898
315,1012.293144208038,0.11184210526315785
316,1012.293144208038,0.11842105263157898
317,1015.090622537431,0.11184210526315785
318,1017.8881008668241,0.11184210526315785
319,1020.6855791962175,0.11184210526315785
320,1023.4830575256105,0.11184210526315785
321,1026.280535855004,0.11184210526315785
322,1029.078014184397,0.11184210526315785
323,1031.8754925137905,0.11184210526315785
324,1034.6729708431835,0.11184210526315785
325,1034.6729708431835,0.10526315789473684
326,1037.470449172577,0.10526315789473684
327,1040.26792750197,0.10526315789473684
328,1043.0654058313635,0.10526315789473684
329,1045.8628841607565,0.10526315789473684
330,1048.6603624901495,0.10526315789473684
331,1048.6603624901495,0.09868421052631582
332,1051.457840819543,0.09868421052631582
333,1054.255319148936,0.09868421052631582
334,1057.0527974783295,0.09868421052631582
335,1059.8502758077225,0.09868421052631582
336,1062.647754137116,0.09868421052631582
337,1062.647754137116,0.10526315789473684
338,1065.445232466509,0.11184210526315785
339,1065.445232466509,0.10526315789473684
340,1068.2427107959024,0.11184210526315785
341,1071.0401891252955,0.11184210526315785
342,1071.0401891252955,0.11842105263157898
343,1073.837667454689,0.125
344,1073.837667454689,0.11842105263157898
345,1076.635145784082,0.125
346,1079.432624113475,0.13157894736842102
347,1079.432624113475,0.125
348,1082.2301024428684,0.13815789473684215
349,1082.2301024428684,0.13157894736842102
350,1085.0275807722614,0.13815789473684215
351,1085.0275807722614,0.14473684210526316
352,1087.825059101655,0.15131578947368418
353,1087.825059101655,0.14473684210526316
354,1090.622537431048,0.1578947368421053
355,1090.622537431048,0.15131578947368418
356,1090.622537431048,0.16447368421052633
357,1093.4200157604414,0.17105263157894735
358,1093.4200157604414,0.16447368421052633
359,1096.2174940898344,0.17105263157894735
360,1096.2174940898344,0.17763157894736847
361,1096.2174940898344,0.1842105263157895
362,1096.2174940898344,0.1907894736842105
363,1099.014972419228,0.20394736842105265
364,1099.014972419228,0.1907894736842105
365,1099.014972419228,0.19736842105263153
366,1101.812450748621,0.20394736842105265
367,1101.812450748621,0.21052631578947367
368,1104.6099290780144,0.2171052631578947
369,1104.6099290780144,0.23026315789473684
370,1104.6099290780144,0.21052631578947367
371,1104.6099290780144,0.22368421052631582
372,1107.4074074074074,0.23026315789473684
373,1110.2048857368004,0.23026315789473684
374,1110.2048857368004,0.23684210526315785
375,1113.0023640661939,0.23684210526315785
376,1115.799842395587,0.23026315789473684
377,1115.799842395587,0.22368421052631582
378,1115.799842395587,0.23684210526315785
379,1118.5973207249804,0.2171052631578947
380,1118.5973207249804,0.22368421052631582
381,1118.5973207249804,0.21052631578947367
382,1121.3947990543734,0.1907894736842105
383,1121.3947990543734,0.1842105263157895
384,1121.3947990543734,0.19736842105263153
385,1121.3947990543734,0.20394736842105265
386,1121.3947990543734,0.21052631578947367
387,1124.1922773837669,0.1842105263157895
388,1124.1922773837669,0.17763157894736847
389,1126.9897557131599,0.1578947368421053
390,1126.9897557131599,0.17763157894736847
391,1126.9897557131599,0.17105263157894735
392,1126.9897557131599,0.16447368421052633
393,1129.7872340425533,0.14473684210526316
394,1129.7872340425533,0.13157894736842102
395,1129.7872340425533,0.15131578947368418
396,1129.7872340425533,0.1578947368421053
397,1129.7872340425533,0.13815789473684215
398,1132.5847123719464,0.13157894736842102
399,1132.5847123719464,0.125
400,1135.3821907013398,0.11184210526315785
401,1135.3821907013398,0.10526315789473684
402,1135.3821907013398,0.11842105263157898
403,1135.3821907013398,0.125
404,1138.1796690307328,0.10526315789473684
405,1140.9771473601263,0.10526315789473684
406,1140.9771473601263,0.09210526315789469
407,1140.9771473601263,0.09868421052631582
408,1143.7746256895193,0.09210526315789469
409,1146.5721040189123,0.09210526315789469
410,1146.5721040189123,0.09868421052631582
411,1149.3695823483058,0.09868421052631582
412,1152.1670606776988,0.09868421052631582
413,1152.1670606776988,0.08552631578947367
414,1152.1670606776988,0.09210526315789469
415,1154.9645390070923,0.08552631578947367
416,1157.7620173364853,0.08552631578947367
417,1157.7620173364853,0.07894736842105265
418,1160.5594956658788,0.07236842105263153
419,1160.5594956658788,0.07894736842105265
420,1160.5594956658788,0.06578947368421051
421,1163.3569739952718,0.05921052631578949
422,1163.3569739952718,0.06578947368421051
423,1166.1544523246653,0.05921052631578949
424,1166.1544523246653,0.052631578947368474
425,1168.9519306540583,0.052631578947368474
426,1171.7494089834518,0.052631578947368474
427,1171.7494089834518,0.046052631578947345
428,1174.5468873128448,0.046052631578947345
429,1177.3443656422378,0.046052631578947345
430,1180.1418439716313,0.052631578947368474
431,1180.1418439716313,0.046052631578947345
432,1182.9393223010243,0.052631578947368474
433,1185.7368006304177,0.06578947368421051
434,1185.7368006304177,0.05921052631578949
435,1185.7368006304177,0.052631578947368474
436,1188.5342789598108,0.06578947368421051
437,1191.3317572892042,0.06578947368421051
438,1194.1292356185972,0.06578947368421051
439,1196.9267139479907,0.06578947368421051
440,1199.7241922773837,0.06578947368421051
441,1202.5216706067772,0.07236842105263153
442,1202.5216706067772,0.06578947368421051
443,1205.3191489361702,0.07236842105263153
444,1205.3191489361702,0.07894736842105265
445,1208.1166272655632,0.07894736842105265
446,1208.1166272655632,0.08552631578947367
447,1210.9141055949567,0.09210526315789469
448,1210.9141055949567,0.08552631578947367
449,1213.7115839243497,0.09210526315789469
450,1216.5090622537432,0.09210526315789469
451,1216.5090622537432,0.09868421052631582
452,1219.3065405831362,0.09868421052631582
453,1222.1040189125297,0.09868421052631582
454,1224.9014972419227,0.09868421052631582
455,1227.6989755713162,0.10526315789473684
456,1227.6989755713162,0.09868421052631582
457,1230.4964539007092,0.10526315789473684
458,1230.4964539007092,0.11184210526315785
459,1233.2939322301027,0.11842105263157898
460,1233.2939322301027,0.11184210526315785
461,1236.0914105594957,0.11842105263157898
462,1236.0914105594957,0.125
463,1238.8888888888887,0.125
464,1238.8888888888887,0.13157894736842102
465,1241.6863672182822,0.13815789473684215
466,1241.6863672182822,0.13157894736842102
467,1244.4838455476752,0.13815789473684215
468,1244.4838455476752,0.14473684210526316
469,1247.2813238770686,0.15131578947368418
470,1247.2813238770686,0.1578947368421053
471,1247.2813238770686,0.14473684210526316
