,wavenumbers,absorbance
0,452.797478329393,0.046052631578947345
1,452.797478329393,0.03947368421052633
2,455.5949566587865,0.046052631578947345
3,458.3924349881795,0.046052631578947345
4,458.3924349881795,0.03947368421052633
5,461.189913317573,0.046052631578947345
6,463.987391646966,0.046052631578947345
7,466.78486997635946,0.046052631578947345
8,466.78486997635946,0.03947368421052633
9,469.5823483057525,0.03947368421052633
10,472.37982663514595,0.03947368421052633
11,472.37982663514595,0.03289473684210531
12,475.17730496453896,0.03289473684210531
13,477.97478329393243,0.03289473684210531
14,480.77226162332545,0.03289473684210531
15,483.56973995271846,0.03289473684210531
16,486.36721828211193,0.03289473684210531
17,489.16469661150495,0.03289473684210531
18,489.16469661150495,0.02631578947368418
19,491.9621749408984,0.02631578947368418
20,494.75965327029144,0.02631578947368418
21,497.5571315996849,0.02631578947368418
22,500.3546099290779,0.02631578947368418
23,503.1520882584714,0.02631578947368418
24,505.9495665878644,0.02631578947368418
25,508.7470449172579,0.02631578947368418
26,511.5445232466509,0.02631578947368418
27,514.3420015760439,0.02631578947368418
28,514.3420015760439,0.03289473684210531
29,517.1394799054374,0.03289473684210531
30,519.9369582348304,0.03289473684210531
31,522.7344365642239,0.03947368421052633
32,522.7344365642239,0.03289473684210531
33,525.5319148936169,0.03947368421052633
34,528.3293932230104,0.03947368421052633
35,531.1268715524034,0.046052631578947345
36,533.9243498817968,0.046052631578947345
37,536.7218282111899,0.046052631578947345
38,539.5193065405833,0.052631578947368474
39,539.5193065405833,0.046052631578947345
40,542.3167848699763,0.052631578947368474
41,542.3167848699763,0.05921052631578949
42,545.1142631993694,0.05921052631578949
43,545.1142631993694,0.06578947368421051
44,547.9117415287628,0.06578947368421051
45,550.7092198581558,0.06578947368421051
46,550.7092198581558,0.07236842105263153
47,553.5066981875493,0.07236842105263153
48,553.5066981875493,0.07894736842105265
49,556.3041765169423,0.08552631578947367
50,556.3041765169423,0.07894736842105265
51,559.1016548463358,0.08552631578947367
52,561.8991331757288,0.08552631578947367
53,564.6966115051223,0.08552631578947367
54,564.6966115051223,0.09868421052631582
55,564.6966115051223,0.09210526315789469
56,567.4940898345153,0.09868421052631582
57,570.2915681639088,0.09868421052631582
58,570.2915681639088,0.10526315789473684
59,573.0890464933018,0.10526315789473684
60,575.8865248226948,0.10526315789473684
61,578.6840031520883,0.10526315789473684
62,578.6840031520883,0.09868421052631582
63,581.4814814814813,0.10526315789473684
64,581.4814814814813,0.09868421052631582
65,584.2789598108748,0.10526315789473684
66,587.0764381402678,0.10526315789473684
67,589.8739164696613,0.09868421052631582
68,589.8739164696613,0.10526315789473684
69,592.6713947990543,0.09868421052631582
70,595.4688731284477,0.09868421052631582
71,598.2663514578408,0.09868421052631582
72,601.0638297872342,0.09868421052631582
73,601.0638297872342,0.10526315789473684
74,603.8613081166272,0.10526315789473684
75,606.6587864460207,0.10526315789473684
76,609.4562647754137,0.11184210526315785
77,609.4562647754137,0.10526315789473684
78,612.2537431048067,0.11842105263157898
79,612.2537431048067,0.11184210526315785
80,615.0512214342002,0.11842105263157898
81,617.8486997635932,0.11842105263157898
82,620.6461780929867,0.11842105263157898
83,623.4436564223797,0.11842105263157898
84,626.2411347517732,0.11842105263157898
85,629.0386130811662,0.11842105263157898
86,631.8360914105597,0.11842105263157898
87,634.6335697399527,0.11842105263157898
88,637.4310480693462,0.11184210526315785
89,637.4310480693462,0.11842105263157898
90,640.2285263987392,0.11184210526315785
91,643.0260047281322,0.11184210526315785
92,643.0260047281322,0.10526315789473684
93,645.8234830575257,0.10526315789473684
94,648.6209613869187,0.09868421052631582
95,648.6209613869187,0.10526315789473684
96,651.4184397163122,0.09868421052631582
97,654.2159180457052,0.09868421052631582
98,657.0133963750986,0.10526315789473684
99,657.0133963750986,0.09868421052631582
100,659.8108747044917,0.11184210526315785
101,659.8108747044917,0.10526315789473684
102,662.6083530338851,0.125
103,662.6083530338851,0.11184210526315785
104,662.6083530338851,0.11842105263157898
105,662.6083530338851,0.13157894736842102
106,665.4058313632781,0.13815789473684215
107,665.4058313632781,0.14473684210526316
108,665.4058313632781,0.13157894736842102
109,668.2033096926716,0.14473684210526316
110,668.2033096926716,0.15131578947368418
111,668.2033096926716,0.1578947368421053
112,668.2033096926716,0.17763157894736847
113,668.2033096926716,0.1842105263157895
114,668.2033096926716,0.16447368421052633
115,668.2033096926716,0.17105263157894735
116,671.0007880220646,0.1907894736842105
117,671.0007880220646,0.20394736842105265
118,671.0007880220646,0.1842105263157895
119,671.0007880220646,0.19736842105263153
120,673.7982663514576,0.22368421052631582
121,673.7982663514576,0.21052631578947367
122,673.7982663514576,0.2171052631578947
123,673.7982663514576,0.23026315789473684
124,673.7982663514576,0.20394736842105265
125,676.5957446808511,0.26315789473684215
126,676.5957446808511,0.25
127,676.5957446808511,0.23684210526315785
128,676.5957446808511,0.24342105263157898
129,676.5957446808511,0.23026315789473684
130,676.5957446808511,0.256578947368421
131,679.3932230102441,0.2763157894736842
132,679.3932230102441,0.26973684210526316
133,679.3932230102441,0.26315789473684215
134,682.1907013396376,0.2763157894736842
135,682.1907013396376,0.2828947368421053
136,684.9881796690306,0.2763157894736842
137,684.9881796690306,0.2828947368421053
138,687.7856579984241,0.256578947368421
139,687.7856579984241,0.26973684210526316
140,687.7856579984241,0.26315789473684215
141,687.7856579984241,0.2763157894736842
142,690.5831363278171,0.25
143,690.5831363278171,0.256578947368421
144,693.3806146572106,0.25
145,696.1780929866036,0.256578947368421
146,696.1780929866036,0.25
147,698.9755713159971,0.26973684210526316
148,698.9755713159971,0.26315789473684215
149,698.9755713159971,0.256578947368421
150,701.7730496453901,0.26973684210526316
151,704.5705279747831,0.26973684210526316
152,707.3680063041766,0.26973684210526316
153,707.3680063041766,0.2763157894736842
154,710.1654846335696,0.2828947368421053
155,710.1654846335696,0.2763157894736842
156,712.962962962963,0.2828947368421053
157,712.962962962963,0.3092105263157895
158,712.962962962963,0.2894736842105263
159,712.962962962963,0.29605263157894735
160,712.962962962963,0.3026315789473685
161,715.7604412923561,0.32894736842105265
162,715.7604412923561,0.3223684210526315
163,715.7604412923561,0.3157894736842105
164,715.7604412923561,0.3092105263157895
165,718.5579196217495,0.3355263157894737
166,718.5579196217495,0.3421052631578947
167,718.5579196217495,0.3486842105263158
168,718.5579196217495,0.35526315789473684
169,718.5579196217495,0.32894736842105265
170,718.5579196217495,0.36184210526315785
171,721.3553979511425,0.375
172,721.3553979511425,0.368421052631579
173,721.3553979511425,0.36184210526315785
174,724.152876280536,0.381578947368421
175,724.152876280536,0.375
176,724.152876280536,0.38815789473684215
177,726.950354609929,0.381578947368421
178,726.950354609929,0.38815789473684215
179,729.7478329393225,0.375
180,729.7478329393225,0.368421052631579
181,729.7478329393225,0.381578947368421
182,732.5453112687155,0.35526315789473684
183,732.5453112687155,0.368421052631579
184,732.5453112687155,0.36184210526315785
185,732.5453112687155,0.3486842105263158
186,735.3427895981085,0.3421052631578947
187,735.3427895981085,0.3486842105263158
188,735.3427895981085,0.32894736842105265
189,735.3427895981085,0.3355263157894737
190,738.140267927502,0.3026315789473685
191,738.140267927502,0.3157894736842105
192,738.140267927502,0.3092105263157895
193,738.140267927502,0.3223684210526315
194,738.140267927502,0.32894736842105265
195,740.937746256895,0.29605263157894735
196,740.937746256895,0.3026315789473685
197,743.7352245862885,0.26973684210526316
198,743.7352245862885,0.26315789473684215
199,743.7352245862885,0.2828947368421053
200,743.7352245862885,0.2894736842105263
201,743.7352245862885,0.29605263157894735
202,743.7352245862885,0.2763157894736842
203,746.5327029156815,0.26315789473684215
204,746.5327029156815,0.25
205,746.5327029156815,0.256578947368421
206,749.330181245075,0.23684210526315785
207,749.330181245075,0.25
208,749.330181245075,0.23026315789473684
209,749.330181245075,0.24342105263157898
210,749.330181245075,0.22368421052631582
211,752.127659574468,0.22368421052631582
212,752.127659574468,0.2171052631578947
213,754.9251379038615,0.21052631578947367
214,754.9251379038615,0.20394736842105265
215,754.9251379038615,0.2171052631578947
216,754.9251379038615,0.19736842105263153
217,757.7226162332545,0.19736842105263153
218,757.7226162332545,0.1907894736842105
219,760.520094562648,0.1907894736842105
220,763.317572892041,0.19736842105263153
221,763.317572892041,0.1907894736842105
222,766.115051221434,0.19736842105263153
223,768.9125295508275,0.1907894736842105
224,768.9125295508275,0.19736842105263153
225,768.9125295508275,0.1842105263157895
226,771.7100078802205,0.17763157894736847
227,771.7100078802205,0.1842105263157895
228,774.507486209614,0.17105263157894735
229,774.507486209614,0.16447368421052633
230,774.507486209614,0.17763157894736847
231,774.507486209614,0.1578947368421053
232,777.304964539007,0.15131578947368418
233,777.304964539007,0.1578947368421053
234,780.1024428684004,0.15131578947368418
235,780.1024428684004,0.14473684210526316
236,782.8999211977934,0.14473684210526316
237,785.6973995271869,0.14473684210526316
238,788.4948778565799,0.15131578947368418
239,788.4948778565799,0.14473684210526316
240,791.2923561859734,0.1578947368421053
241,791.2923561859734,0.15131578947368418
242,794.0898345153664,0.1578947368421053
243,794.0898345153664,0.17105263157894735
244,794.0898345153664,0.16447368421052633
245,796.8873128447594,0.17763157894736847
246,796.8873128447594,0.17105263157894735
247,799.6847911741529,0.1842105263157895
248,799.6847911741529,0.17763157894736847
249,799.6847911741529,0.1907894736842105
250,799.6847911741529,0.19736842105263153
251,802.4822695035459,0.20394736842105265
252,802.4822695035459,0.19736842105263153
253,805.2797478329394,0.21052631578947367
254,805.2797478329394,0.20394736842105265
255,808.0772261623324,0.21052631578947367
256,810.8747044917259,0.21052631578947367
257,813.6721828211189,0.21052631578947367
258,816.4696611505124,0.21052631578947367
259,819.2671394799054,0.2171052631578947
260,819.2671394799054,0.21052631578947367
261,822.0646178092989,0.2171052631578947
262,822.0646178092989,0.22368421052631582
263,824.8620961386919,0.22368421052631582
264,824.8620961386919,0.23026315789473684
265,827.6595744680849,0.23026315789473684
266,830.4570527974784,0.23026315789473684
267,833.2545311268714,0.23026315789473684
268,836.0520094562648,0.22368421052631582
269,836.0520094562648,0.23026315789473684
270,838.8494877856579,0.22368421052631582
271,841.6469661150513,0.22368421052631582
272,844.4444444444443,0.22368421052631582
273,847.2419227738378,0.22368421052631582
274,850.0394011032308,0.22368421052631582
275,850.0394011032308,0.23026315789473684
276,852.8368794326243,0.23026315789473684
277,855.6343577620173,0.23026315789473684
278,858.4318360914103,0.23026315789473684
279,861.2293144208038,0.2171052631578947
280,861.2293144208038,0.22368421052631582
281,861.2293144208038,0.23026315789473684
282,864.0267927501968,0.2171052631578947
283,864.0267927501968,0.21052631578947367
284,866.8242710795903,0.20394736842105265
285,866.8242710795903,0.21052631578947367
286,869.6217494089833,0.19736842105263153
287,869.6217494089833,0.20394736842105265
288,872.4192277383768,0.19736842105263153
289,875.2167060677698,0.19736842105263153
290,875.2167060677698,0.1907894736842105
291,878.0141843971633,0.1907894736842105
292,880.8116627265563,0.19736842105263153
293,880.8116627265563,0.1907894736842105
294,883.6091410559497,0.19736842105263153
295,886.4066193853428,0.21052631578947367
296,886.4066193853428,0.19736842105263153
297,886.4066193853428,0.20394736842105265
298,889.2040977147362,0.2171052631578947
299,889.2040977147362,0.21052631578947367
300,892.0015760441293,0.2171052631578947
301,892.0015760441293,0.23684210526315785
302,892.0015760441293,0.22368421052631582
303,892.0015760441293,0.24342105263157898
304,892.0015760441293,0.23026315789473684
305,894.7990543735223,0.25
306,894.7990543735223,0.256578947368421
307,894.7990543735223,0.24342105263157898
308,897.5965327029157,0.2763157894736842
309,897.5965327029157,0.256578947368421
310,897.5965327029157,0.26315789473684215
311,897.5965327029157,0.26973684210526316
312,900.3940110323088,0.2763157894736842
313,900.3940110323088,0.2828947368421053
314,903.1914893617022,0.2894736842105263
315,903.1914893617022,0.2828947368421053
316,905.9889676910952,0.2828947368421053
317,905.9889676910952,0.2894736842105263
318,908.7864460204887,0.2828947368421053
319,911.5839243498817,0.26973684210526316
320,911.5839243498817,0.2828947368421053
321,911.5839243498817,0.26315789473684215
322,911.5839243498817,0.2763157894736842
323,914.3814026792752,0.24342105263157898
324,914.3814026792752,0.26315789473684215
325,914.3814026792752,0.256578947368421
326,914.3814026792752,0.25
327,917.1788810086682,0.23684210526315785
328,917.1788810086682,0.24342105263157898
329,917.1788810086682,0.2171052631578947
330,917.1788810086682,0.21052631578947367
331,917.1788810086682,0.22368421052631582
332,917.1788810086682,0.23026315789473684
333,919.9763593380617,0.19736842105263153
334,919.9763593380617,0.20394736842105265
335,919.9763593380617,0.21052631578947367
336,922.7738376674547,0.1907894736842105
337,922.7738376674547,0.19736842105263153
338,922.7738376674547,0.1842105263157895
339,925.5713159968477,0.1842105263157895
340,925.5713159968477,0.17763157894736847
341,928.3687943262412,0.17105263157894735
342,928.3687943262412,0.17763157894736847
343,931.1662726556342,0.17105263157894735
344,931.1662726556342,0.16447368421052633
345,933.9637509850277,0.16447368421052633
346,936.7612293144207,0.1578947368421053
347,936.7612293144207,0.16447368421052633
348,939.5587076438142,0.1578947368421053
349,942.3561859732072,0.1578947368421053
350,945.1536643026006,0.1578947368421053
351,947.9511426319937,0.1578947368421053
352,950.7486209613871,0.1578947368421053
353,953.5460992907801,0.1578947368421053
354,956.3435776201732,0.1578947368421053
355,959.1410559495666,0.1578947368421053
356,959.1410559495666,0.16447368421052633
357,961.9385342789597,0.16447368421052633
358,961.9385342789597,0.17105263157894735
359,961.9385342789597,0.17763157894736847
360,964.7360126083531,0.1842105263157895
361,964.7360126083531,0.17763157894736847
362,967.5334909377461,0.20394736842105265
363,967.5334909377461,0.1842105263157895
364,967.5334909377461,0.1907894736842105
365,967.5334909377461,0.19736842105263153
366,970.3309692671396,0.20394736842105265
367,973.1284475965326,0.19736842105263153
368,973.1284475965326,0.20394736842105265
369,975.9259259259261,0.1907894736842105
370,975.9259259259261,0.19736842105263153
371,975.9259259259261,0.1842105263157895
372,978.7234042553191,0.17105263157894735
373,978.7234042553191,0.17763157894736847
374,978.7234042553191,0.1842105263157895
375,978.7234042553191,0.16447368421052633
376,978.7234042553191,0.1578947368421053
377,981.5208825847126,0.15131578947368418
378,981.5208825847126,0.14473684210526316
379,981.5208825847126,0.1578947368421053
380,984.3183609141056,0.13157894736842102
381,984.3183609141056,0.13815789473684215
382,984.3183609141056,0.14473684210526316
383,987.1158392434986,0.11842105263157898
384,987.1158392434986,0.13157894736842102
385,987.1158392434986,0.125
386,987.1158392434986,0.11184210526315785
387,989.9133175728921,0.10526315789473684
388,989.9133175728921,0.11184210526315785
389,992.7107959022851,0.10526315789473684
390,992.7107959022851,0.09868421052631582
391,995.5082742316786,0.09868421052631582
392,995.5082742316786,0.10526315789473684
393,998.3057525610716,0.10526315789473684
394,1001.103230890465,0.10526315789473684
395,1001.103230890465,0.11184210526315785
396,1003.9007092198581,0.11184210526315785
397,1003.9007092198581,0.125
398,1003.9007092198581,0.11842105263157898
399,1006.6981875492515,0.125
400,1006.6981875492515,0.13157894736842102
401,1009.4956658786446,0.13157894736842102
402,1009.4956658786446,0.13815789473684215
403,1012.293144208038,0.13815789473684215
404,1012.293144208038,0.14473684210526316
405,1015.090622537431,0.15131578947368418
406,1015.090622537431,0.14473684210526316
407,1017.8881008668241,0.16447368421052633
408,1017.8881008668241,0.1578947368421053
409,1017.8881008668241,0.15131578947368418
410,1020.6855791962175,0.17105263157894735
411,1020.6855791962175,0.17763157894736847
412,1020.6855791962175,0.16447368421052633
413,1023.4830575256105,0.17763157894736847
414,1023.4830575256105,0.1842105263157895
415,1023.4830575256105,0.1907894736842105
416,1026.280535855004,0.1907894736842105
417,1026.280535855004,0.19736842105263153
418,1029.078014184397,0.19736842105263153
419,1031.8754925137905,0.19736842105263153
420,1034.6729708431835,0.19736842105263153
421,1034.6729708431835,0.20394736842105265
422,1037.470449172577,0.21052631578947367
423,1037.470449172577,0.20394736842105265
424,1040.26792750197,0.2171052631578947
425,1040.26792750197,0.21052631578947367
426,1043.0654058313635,0.2171052631578947
427,1043.0654058313635,0.22368421052631582
428,1045.8628841607565,0.22368421052631582
429,1045.8628841607565,0.23026315789473684
430,1045.8628841607565,0.23684210526315785
431,1048.6603624901495,0.25
432,1048.6603624901495,0.24342105263157898
433,1048.6603624901495,0.256578947368421
434,1048.6603624901495,0.26973684210526316
435,1048.6603624901495,0.26315789473684215
436,1048.6603624901495,0.23684210526315785
437,1048.6603624901495,0.2763157894736842
438,1051.457840819543,0.2828947368421053
439,1051.457840819543,0.29605263157894735
440,1051.457840819543,0.2894736842105263
441,1051.457840819543,0.3026315789473685
442,1051.457840819543,0.2763157894736842
443,1054.255319148936,0.381578947368421
444,1054.255319148936,0.3092105263157895
445,1054.255319148936,0.3026315789473685
446,1054.255319148936,0.3157894736842105
447,1054.255319148936,0.375
448,1054.255319148936,0.3421052631578947
449,1054.255319148936,0.35526315789473684
450,1054.255319148936,0.368421052631579
451,1054.255319148936,0.3223684210526315
452,1054.255319148936,0.36184210526315785
453,1054.255319148936,0.32894736842105265
454,1054.255319148936,0.3486842105263158
455,1054.255319148936,0.3355263157894737
456,1054.255319148936,0.39473684210526316
457,1054.255319148936,0.38815789473684215
458,1057.0527974783295,0.4342105263157895
459,1057.0527974783295,0.4013157894736842
460,1057.0527974783295,0.39473684210526316
461,1057.0527974783295,0.45394736842105265
462,1057.0527974783295,0.4078947368421053
463,1057.0527974783295,0.4407894736842105
464,1057.0527974783295,0.4473684210526315
465,1057.0527974783295,0.4144736842105263
466,1057.0527974783295,0.4276315789473685
467,1057.0527974783295,0.42105263157894735
468,1059.8502758077225,0.45394736842105265
469,1059.8502758077225,0.506578947368421
470,1059.8502758077225,0.5526315789473684
471,1059.8502758077225,0.48026315789473684
472,1059.8502758077225,0.4605263157894737
473,1059.8502758077225,0.4736842105263158
474,1059.8502758077225,0.5328947368421053
