,wavenumbers,absorbance
0,452.797478329393,0.03947368421052633
1,452.797478329393,0.03289473684210531
2,455.5949566587865,0.03289473684210531
3,458.3924349881795,0.03947368421052633
4,458.3924349881795,0.03289473684210531
5,461.189913317573,0.03947368421052633
6,463.987391646966,0.03947368421052633
7,466.78486997635946,0.03947368421052633
8,469.5823483057525,0.03947368421052633
9,472.37982663514595,0.03947368421052633
10,475.17730496453896,0.03947368421052633
11,477.97478329393243,0.03947368421052633
12,480.77226162332545,0.03289473684210531
13,480.77226162332545,0.03947368421052633
14,483.56973995271846,0.03289473684210531
15,486.36721828211193,0.03289473684210531
16,489.16469661150495,0.03947368421052633
17,489.16469661150495,0.03289473684210531
18,491.9621749408984,0.03947368421052633
19,494.75965327029144,0.03947368421052633
20,497.5571315996849,0.03947368421052633
21,500.3546099290779,0.03947368421052633
22,503.1520882584714,0.03947368421052633
23,505.9495665878644,0.03947368421052633
24,508.7470449172579,0.03947368421052633
25,511.5445232466509,0.03947368421052633
26,514.3420015760439,0.03289473684210531
27,514.3420015760439,0.03947368421052633
28,517.1394799054374,0.03289473684210531
29,519.9369582348304,0.03289473684210531
30,522.7344365642239,0.03289473684210531
31,525.5319148936169,0.03289473684210531
32,528.3293932230104,0.03289473684210531
33,528.3293932230104,0.02631578947368418
34,531.1268715524034,0.02631578947368418
35,533.9243498817968,0.02631578947368418
36,536.7218282111899,0.02631578947368418
37,539.5193065405833,0.02631578947368418
38,542.3167848699763,0.02631578947368418
39,545.1142631993694,0.02631578947368418
40,547.9117415287628,0.02631578947368418
41,550.7092198581558,0.02631578947368418
42,553.5066981875493,0.02631578947368418
43,556.3041765169423,0.02631578947368418
44,559.1016548463358,0.02631578947368418
45,561.8991331757288,0.02631578947368418
46,564.6966115051223,0.02631578947368418
47,567.4940898345153,0.02631578947368418
48,570.2915681639088,0.02631578947368418
49,573.0890464933018,0.02631578947368418
50,575.8865248226948,0.02631578947368418
51,578.6840031520883,0.02631578947368418
52,581.4814814814813,0.02631578947368418
53,584.2789598108748,0.02631578947368418
54,587.0764381402678,0.02631578947368418
55,589.8739164696613,0.02631578947368418
56,592.6713947990543,0.02631578947368418
57,595.4688731284477,0.02631578947368418
58,595.4688731284477,0.03289473684210531
59,598.2663514578408,0.03289473684210531
60,601.0638297872342,0.03289473684210531
61,603.8613081166272,0.03289473684210531
62,606.6587864460207,0.03289473684210531
63,609.4562647754137,0.03289473684210531
64,612.2537431048067,0.03289473684210531
65,615.0512214342002,0.03289473684210531
66,617.8486997635932,0.03289473684210531
67,620.6461780929867,0.03289473684210531
68,623.4436564223797,0.03289473684210531
69,626.2411347517732,0.03289473684210531
70,626.2411347517732,0.02631578947368418
71,629.0386130811662,0.02631578947368418
72,631.8360914105597,0.02631578947368418
73,634.6335697399527,0.02631578947368418
74,637.4310480693462,0.02631578947368418
75,640.2285263987392,0.02631578947368418
76,643.0260047281322,0.019736842105263164
77,643.0260047281322,0.02631578947368418
78,645.8234830575257,0.019736842105263164
79,648.6209613869187,0.019736842105263164
80,651.4184397163122,0.019736842105263164
81,654.2159180457052,0.019736842105263164
82,657.0133963750986,0.019736842105263164
83,659.8108747044917,0.019736842105263164
84,662.6083530338851,0.019736842105263164
85,665.4058313632781,0.019736842105263164
86,668.2033096926716,0.019736842105263164
87,671.0007880220646,0.019736842105263164
88,673.7982663514576,0.019736842105263164
89,676.5957446808511,0.019736842105263164
90,679.3932230102441,0.019736842105263164
91,682.1907013396376,0.019736842105263164
92,684.9881796690306,0.019736842105263164
93,687.7856579984241,0.019736842105263164
94,690.5831363278171,0.019736842105263164
95,693.3806146572106,0.019736842105263164
96,696.1780929866036,0.019736842105263164
97,698.9755713159971,0.019736842105263164
98,701.7730496453901,0.019736842105263164
99,704.5705279747831,0.019736842105263164
100,707.3680063041766,0.019736842105263164
101,710.1654846335696,0.019736842105263164
102,712.962962962963,0.019736842105263164
103,715.7604412923561,0.019736842105263164
104,718.5579196217495,0.02631578947368418
105,718.5579196217495,0.019736842105263164
106,721.3553979511425,0.02631578947368418
107,724.152876280536,0.03289473684210531
108,724.152876280536,0.02631578947368418
109,726.950354609929,0.03289473684210531
110,726.950354609929,0.03947368421052633
111,729.7478329393225,0.046052631578947345
112,729.7478329393225,0.03947368421052633
113,732.5453112687155,0.05921052631578949
114,732.5453112687155,0.046052631578947345
115,732.5453112687155,0.06578947368421051
116,732.5453112687155,0.052631578947368474
117,735.3427895981085,0.06578947368421051
118,738.140267927502,0.06578947368421051
119,738.140267927502,0.05921052631578949
120,740.937746256895,0.05921052631578949
121,743.7352245862885,0.05921052631578949
122,746.5327029156815,0.05921052631578949
123,749.330181245075,0.05921052631578949
124,752.127659574468,0.05921052631578949
125,754.9251379038615,0.05921052631578949
126,757.7226162332545,0.05921052631578949
127,760.520094562648,0.05921052631578949
128,763.317572892041,0.05921052631578949
129,766.115051221434,0.05921052631578949
130,766.115051221434,0.052631578947368474
131,768.9125295508275,0.052631578947368474
132,771.7100078802205,0.052631578947368474
133,774.507486209614,0.052631578947368474
134,774.507486209614,0.046052631578947345
135,777.304964539007,0.046052631578947345
136,780.1024428684004,0.03947368421052633
137,780.1024428684004,0.046052631578947345
138,782.8999211977934,0.03947368421052633
139,785.6973995271869,0.03947368421052633
140,788.4948778565799,0.03947368421052633
141,788.4948778565799,0.046052631578947345
142,791.2923561859734,0.046052631578947345
143,791.2923561859734,0.03947368421052633
144,794.0898345153664,0.046052631578947345
145,796.8873128447594,0.046052631578947345
146,799.6847911741529,0.046052631578947345
147,799.6847911741529,0.052631578947368474
148,802.4822695035459,0.052631578947368474
149,805.2797478329394,0.046052631578947345
150,805.2797478329394,0.052631578947368474
151,808.0772261623324,0.046052631578947345
152,810.8747044917259,0.046052631578947345
153,813.6721828211189,0.046052631578947345
154,816.4696611505124,0.046052631578947345
155,819.2671394799054,0.046052631578947345
156,822.0646178092989,0.046052631578947345
157,824.8620961386919,0.046052631578947345
158,827.6595744680849,0.046052631578947345
159,830.4570527974784,0.046052631578947345
160,830.4570527974784,0.052631578947368474
161,833.2545311268714,0.052631578947368474
162,833.2545311268714,0.05921052631578949
163,836.0520094562648,0.05921052631578949
164,838.8494877856579,0.05921052631578949
165,841.6469661150513,0.046052631578947345
166,841.6469661150513,0.05921052631578949
167,841.6469661150513,0.052631578947368474
168,844.4444444444443,0.046052631578947345
169,844.4444444444443,0.03947368421052633
170,847.2419227738378,0.03947368421052633
171,850.0394011032308,0.03289473684210531
172,850.0394011032308,0.03947368421052633
173,852.8368794326243,0.03289473684210531
174,855.6343577620173,0.02631578947368418
175,855.6343577620173,0.03289473684210531
176,858.4318360914103,0.02631578947368418
177,861.2293144208038,0.02631578947368418
178,864.0267927501968,0.02631578947368418
179,866.8242710795903,0.02631578947368418
180,866.8242710795903,0.019736842105263164
181,869.6217494089833,0.019736842105263164
182,872.4192277383768,0.019736842105263164
183,875.2167060677698,0.019736842105263164
184,878.0141843971633,0.013157894736842146
185,878.0141843971633,0.019736842105263164
186,880.8116627265563,0.019736842105263164
187,880.8116627265563,0.013157894736842146
188,883.6091410559497,0.019736842105263164
189,886.4066193853428,0.019736842105263164
190,889.2040977147362,0.019736842105263164
191,892.0015760441293,0.019736842105263164
192,892.0015760441293,0.02631578947368418
193,894.7990543735223,0.02631578947368418
194,897.5965327029157,0.03289473684210531
195,897.5965327029157,0.02631578947368418
196,900.3940110323088,0.03289473684210531
197,903.1914893617022,0.03289473684210531
198,905.9889676910952,0.03289473684210531
199,908.7864460204887,0.03289473684210531
200,911.5839243498817,0.03289473684210531
201,911.5839243498817,0.03947368421052633
202,914.3814026792752,0.03947368421052633
203,917.1788810086682,0.03947368421052633
204,917.1788810086682,0.046052631578947345
205,919.9763593380617,0.046052631578947345
206,922.7738376674547,0.05921052631578949
207,922.7738376674547,0.046052631578947345
208,922.7738376674547,0.052631578947368474
209,925.5713159968477,0.06578947368421051
210,925.5713159968477,0.05921052631578949
211,928.3687943262412,0.06578947368421051
212,928.3687943262412,0.07236842105263153
213,931.1662726556342,0.07236842105263153
214,931.1662726556342,0.07894736842105265
215,931.1662726556342,0.09210526315789469
216,931.1662726556342,0.08552631578947367
217,933.9637509850277,0.09210526315789469
218,933.9637509850277,0.09868421052631582
219,936.7612293144207,0.09868421052631582
220,936.7612293144207,0.10526315789473684
221,939.5587076438142,0.10526315789473684
222,942.3561859732072,0.10526315789473684
223,942.3561859732072,0.09868421052631582
224,945.1536643026006,0.09210526315789469
225,945.1536643026006,0.09868421052631582
226,947.9511426319937,0.08552631578947367
227,947.9511426319937,0.09210526315789469
228,950.7486209613871,0.08552631578947367
229,953.5460992907801,0.08552631578947367
230,956.3435776201732,0.09210526315789469
231,956.3435776201732,0.08552631578947367
232,959.1410559495666,0.09210526315789469
233,961.9385342789597,0.08552631578947367
234,961.9385342789597,0.07894736842105265
235,961.9385342789597,0.09210526315789469
236,964.7360126083531,0.07236842105263153
237,964.7360126083531,0.07894736842105265
238,967.5334909377461,0.07236842105263153
239,967.5334909377461,0.06578947368421051
240,970.3309692671396,0.06578947368421051
241,973.1284475965326,0.05921052631578949
242,973.1284475965326,0.06578947368421051
243,975.9259259259261,0.05921052631578949
244,975.9259259259261,0.06578947368421051
245,978.7234042553191,0.06578947368421051
246,981.5208825847126,0.06578947368421051
247,984.3183609141056,0.06578947368421051
248,984.3183609141056,0.07236842105263153
249,987.1158392434986,0.07236842105263153
250,989.9133175728921,0.07236842105263153
251,989.9133175728921,0.07894736842105265
252,992.7107959022851,0.07894736842105265
253,995.5082742316786,0.07894736842105265
254,995.5082742316786,0.08552631578947367
255,998.3057525610716,0.08552631578947367
256,998.3057525610716,0.09210526315789469
257,1001.103230890465,0.09210526315789469
258,1003.9007092198581,0.09868421052631582
259,1003.9007092198581,0.10526315789473684
260,1003.9007092198581,0.09210526315789469
261,1006.6981875492515,0.10526315789473684
262,1006.6981875492515,0.11184210526315785
263,1009.4956658786446,0.11184210526315785
264,1009.4956658786446,0.125
265,1009.4956658786446,0.11842105263157898
266,1012.293144208038,0.13815789473684215
267,1012.293144208038,0.13157894736842102
268,1012.293144208038,0.125
269,1015.090622537431,0.13815789473684215
270,1015.090622537431,0.14473684210526316
271,1017.8881008668241,0.15131578947368418
272,1017.8881008668241,0.14473684210526316
273,1020.6855791962175,0.15131578947368418
274,1023.4830575256105,0.14473684210526316
275,1023.4830575256105,0.15131578947368418
276,1026.280535855004,0.14473684210526316
277,1029.078014184397,0.14473684210526316
278,1029.078014184397,0.13815789473684215
279,1031.8754925137905,0.13815789473684215
280,1034.6729708431835,0.13815789473684215
281,1034.6729708431835,0.13157894736842102
282,1037.470449172577,0.13157894736842102
283,1040.26792750197,0.13157894736842102
284,1043.0654058313635,0.13815789473684215
285,1043.0654058313635,0.13157894736842102
286,1045.8628841607565,0.13815789473684215
287,1048.6603624901495,0.13815789473684215
288,1048.6603624901495,0.14473684210526316
289,1051.457840819543,0.1578947368421053
290,1051.457840819543,0.14473684210526316
291,1051.457840819543,0.15131578947368418
292,1054.255319148936,0.17105263157894735
293,1054.255319148936,0.16447368421052633
294,1054.255319148936,0.1578947368421053
295,1054.255319148936,0.17763157894736847
296,1054.255319148936,0.1842105263157895
297,1057.0527974783295,0.1842105263157895
298,1057.0527974783295,0.1907894736842105
299,1059.8502758077225,0.1907894736842105
300,1059.8502758077225,0.19736842105263153
301,1062.647754137116,0.19736842105263153
302,1065.445232466509,0.19736842105263153
303,1065.445232466509,0.1907894736842105
304,1068.2427107959024,0.1907894736842105
305,1068.2427107959024,0.17763157894736847
306,1068.2427107959024,0.1842105263157895
307,1071.0401891252955,0.17763157894736847
308,1073.837667454689,0.17105263157894735
309,1073.837667454689,0.17763157894736847
310,1076.635145784082,0.17105263157894735
311,1079.432624113475,0.17105263157894735
312,1082.2301024428684,0.17763157894736847
313,1082.2301024428684,0.17105263157894735
314,1085.0275807722614,0.17763157894736847
315,1087.825059101655,0.17763157894736847
316,1090.622537431048,0.17763157894736847
317,1090.622537431048,0.1842105263157895
318,1093.4200157604414,0.1842105263157895
319,1093.4200157604414,0.1907894736842105
320,1096.2174940898344,0.20394736842105265
321,1096.2174940898344,0.19736842105263153
322,1096.2174940898344,0.1907894736842105
323,1099.014972419228,0.20394736842105265
324,1099.014972419228,0.21052631578947367
325,1099.014972419228,0.2171052631578947
326,1101.812450748621,0.2171052631578947
327,1101.812450748621,0.22368421052631582
328,1104.6099290780144,0.24342105263157898
329,1104.6099290780144,0.23684210526315785
330,1104.6099290780144,0.23026315789473684
331,1104.6099290780144,0.22368421052631582
332,1107.4074074074074,0.24342105263157898
333,1107.4074074074074,0.25
334,1110.2048857368004,0.26973684210526316
335,1110.2048857368004,0.25
336,1110.2048857368004,0.26315789473684215
337,1110.2048857368004,0.256578947368421
338,1113.0023640661939,0.26973684210526316
339,1113.0023640661939,0.2763157894736842
340,1115.799842395587,0.2763157894736842
341,1115.799842395587,0.2828947368421053
342,1118.5973207249804,0.2828947368421053
343,1121.3947990543734,0.2828947368421053
344,1121.3947990543734,0.2894736842105263
345,1124.1922773837669,0.2828947368421053
346,1124.1922773837669,0.2894736842105263
347,1126.9897557131599,0.2828947368421053
348,1126.9897557131599,0.2763157894736842
349,1129.7872340425533,0.2828947368421053
350,1129.7872340425533,0.2763157894736842
351,1132.5847123719464,0.2828947368421053
352,1132.5847123719464,0.2894736842105263
353,1135.3821907013398,0.3157894736842105
354,1135.3821907013398,0.2894736842105263
355,1135.3821907013398,0.3026315789473685
356,1135.3821907013398,0.32894736842105265
357,1135.3821907013398,0.3223684210526315
358,1135.3821907013398,0.29605263157894735
359,1135.3821907013398,0.3355263157894737
360,1135.3821907013398,0.3092105263157895
361,1138.1796690307328,0.36184210526315785
362,1138.1796690307328,0.35526315789473684
363,1138.1796690307328,0.3421052631578947
364,1138.1796690307328,0.3355263157894737
365,1138.1796690307328,0.3486842105263158
366,1140.9771473601263,0.368421052631579
367,1140.9771473601263,0.39473684210526316
368,1140.9771473601263,0.36184210526315785
369,1140.9771473601263,0.4078947368421053
370,1140.9771473601263,0.38815789473684215
371,1140.9771473601263,0.4013157894736842
372,1140.9771473601263,0.375
373,1140.9771473601263,0.4144736842105263
374,1140.9771473601263,0.381578947368421
375,1143.7746256895193,0.42105263157894735
376,1143.7746256895193,0.4276315789473685
377,1143.7746256895193,0.4342105263157895
378,1143.7746256895193,0.4144736842105263
379,1143.7746256895193,0.4407894736842105
380,1146.5721040189123,0.4736842105263158
381,1146.5721040189123,0.45394736842105265
382,1146.5721040189123,0.4671052631578947
383,1146.5721040189123,0.4473684210526315
384,1146.5721040189123,0.4605263157894737
385,1146.5721040189123,0.4407894736842105
386,1149.3695823483058,0.48026315789473684
387,1149.3695823483058,0.4736842105263158
388,1149.3695823483058,0.48684210526315785
389,1152.1670606776988,0.48684210526315785
390,1152.1670606776988,0.506578947368421
391,1152.1670606776988,0.5328947368421053
392,1152.1670606776988,0.493421052631579
393,1152.1670606776988,0.5263157894736843
394,1152.1670606776988,0.5
395,1152.1670606776988,0.513157894736842
396,1152.1670606776988,0.5197368421052632
397,1154.9645390070923,0.5394736842105263
398,1154.9645390070923,0.5328947368421053
399,1154.9645390070923,0.5460526315789473
400,1154.9645390070923,0.5526315789473684
401,1157.7620173364853,0.5657894736842105
402,1157.7620173364853,0.5592105263157895
403,1157.7620173364853,0.5526315789473684
404,1160.5594956658788,0.5723684210526316
405,1160.5594956658788,0.5657894736842105
406,1163.3569739952718,0.5657894736842105
407,1166.1544523246653,0.5526315789473684
408,1166.1544523246653,0.5460526315789473
409,1166.1544523246653,0.5592105263157895
410,1166.1544523246653,0.5657894736842105
411,1168.9519306540583,0.5328947368421053
412,1168.9519306540583,0.5394736842105263
413,1168.9519306540583,0.5460526315789473
414,1171.7494089834518,0.5
415,1171.7494089834518,0.48684210526315785
416,1171.7494089834518,0.5263157894736843
417,1171.7494089834518,0.506578947368421
418,1171.7494089834518,0.5328947368421053
419,1171.7494089834518,0.493421052631579
420,1171.7494089834518,0.5197368421052632
421,1171.7494089834518,0.513157894736842
422,1174.5468873128448,0.4671052631578947
423,1174.5468873128448,0.48026315789473684
424,1174.5468873128448,0.4605263157894737
425,1174.5468873128448,0.4736842105263158
426,1174.5468873128448,0.48684210526315785
427,1177.3443656422378,0.4473684210526315
428,1177.3443656422378,0.4407894736842105
429,1177.3443656422378,0.4605263157894737
430,1177.3443656422378,0.45394736842105265
431,1177.3443656422378,0.4342105263157895
432,1177.3443656422378,0.4144736842105263
433,1177.3443656422378,0.42105263157894735
434,1177.3443656422378,0.4276315789473685
435,1177.3443656422378,0.4078947368421053
436,1180.1418439716313,0.381578947368421
437,1180.1418439716313,0.4013157894736842
438,1180.1418439716313,0.38815789473684215
439,1180.1418439716313,0.4078947368421053
440,1180.1418439716313,0.39473684210526316
441,1182.9393223010243,0.375
442,1182.9393223010243,0.36184210526315785
443,1182.9393223010243,0.381578947368421
444,1182.9393223010243,0.368421052631579
445,1185.7368006304177,0.3421052631578947
446,1185.7368006304177,0.35526315789473684
447,1185.7368006304177,0.3355263157894737
448,1185.7368006304177,0.3223684210526315
449,1185.7368006304177,0.3486842105263158
450,1185.7368006304177,0.36184210526315785
451,1185.7368006304177,0.32894736842105265
452,1188.5342789598108,0.3223684210526315
453,1188.5342789598108,0.3157894736842105
454,1191.3317572892042,0.3092105263157895
455,1191.3317572892042,0.3026315789473685
456,1191.3317572892042,0.29605263157894735
457,1191.3317572892042,0.3157894736842105
458,1194.1292356185972,0.29605263157894735
459,1194.1292356185972,0.2894736842105263
460,1196.9267139479907,0.2828947368421053
461,1196.9267139479907,0.2894736842105263
462,1199.7241922773837,0.2828947368421053
463,1202.5216706067772,0.2894736842105263
464,1202.5216706067772,0.2828947368421053
465,1205.3191489361702,0.2894736842105263
466,1205.3191489361702,0.29605263157894735
