,wavenumbers,absorbance
0,452.797478329393,0.02631578947368418
1,455.5949566587865,0.02631578947368418
2,458.3924349881795,0.02631578947368418
3,461.189913317573,0.02631578947368418
4,463.987391646966,0.03289473684210531
5,463.987391646966,0.02631578947368418
6,466.78486997635946,0.03289473684210531
7,469.5823483057525,0.03289473684210531
8,472.37982663514595,0.03289473684210531
9,475.17730496453896,0.03289473684210531
10,477.97478329393243,0.03289473684210531
11,480.77226162332545,0.03289473684210531
12,483.56973995271846,0.03289473684210531
13,486.36721828211193,0.03289473684210531
14,489.16469661150495,0.03289473684210531
15,491.9621749408984,0.03289473684210531
16,494.75965327029144,0.03289473684210531
17,497.5571315996849,0.02631578947368418
18,497.5571315996849,0.03289473684210531
19,500.3546099290779,0.02631578947368418
20,503.1520882584714,0.02631578947368418
21,505.9495665878644,0.02631578947368418
22,508.7470449172579,0.02631578947368418
23,508.7470449172579,0.03289473684210531
24,511.5445232466509,0.03289473684210531
25,514.3420015760439,0.03289473684210531
26,517.1394799054374,0.03289473684210531
27,519.9369582348304,0.02631578947368418
28,519.9369582348304,0.03289473684210531
29,522.7344365642239,0.02631578947368418
30,525.5319148936169,0.02631578947368418
31,528.3293932230104,0.03289473684210531
32,528.3293932230104,0.02631578947368418
33,531.1268715524034,0.03289473684210531
34,533.9243498817968,0.03289473684210531
35,536.7218282111899,0.03289473684210531
36,539.5193065405833,0.03289473684210531
37,542.3167848699763,0.03289473684210531
38,545.1142631993694,0.03289473684210531
39,547.9117415287628,0.02631578947368418
40,547.9117415287628,0.03289473684210531
41,550.7092198581558,0.02631578947368418
42,553.5066981875493,0.02631578947368418
43,556.3041765169423,0.02631578947368418
44,559.1016548463358,0.02631578947368418
45,561.8991331757288,0.02631578947368418
46,564.6966115051223,0.02631578947368418
47,567.4940898345153,0.02631578947368418
48,570.2915681639088,0.02631578947368418
49,573.0890464933018,0.02631578947368418
50,575.8865248226948,0.019736842105263164
51,575.8865248226948,0.02631578947368418
52,578.6840031520883,0.019736842105263164
53,581.4814814814813,0.02631578947368418
54,581.4814814814813,0.019736842105263164
55,584.2789598108748,0.019736842105263164
56,584.2789598108748,0.02631578947368418
57,587.0764381402678,0.019736842105263164
58,589.8739164696613,0.019736842105263164
59,592.6713947990543,0.019736842105263164
60,595.4688731284477,0.019736842105263164
61,598.2663514578408,0.019736842105263164
62,601.0638297872342,0.019736842105263164
63,603.8613081166272,0.019736842105263164
64,606.6587864460207,0.019736842105263164
65,609.4562647754137,0.019736842105263164
66,612.2537431048067,0.019736842105263164
67,615.0512214342002,0.019736842105263164
68,617.8486997635932,0.019736842105263164
69,620.6461780929867,0.019736842105263164
70,620.6461780929867,0.02631578947368418
71,623.4436564223797,0.019736842105263164
72,623.4436564223797,0.02631578947368418
73,626.2411347517732,0.019736842105263164
74,626.2411347517732,0.02631578947368418
75,629.0386130811662,0.02631578947368418
76,629.0386130811662,0.019736842105263164
77,631.8360914105597,0.019736842105263164
78,631.8360914105597,0.02631578947368418
79,634.6335697399527,0.02631578947368418
80,637.4310480693462,0.02631578947368418
81,637.4310480693462,0.03289473684210531
82,640.2285263987392,0.03947368421052633
83,640.2285263987392,0.03289473684210531
84,643.0260047281322,0.052631578947368474
85,643.0260047281322,0.03947368421052633
86,643.0260047281322,0.046052631578947345
87,643.0260047281322,0.05921052631578949
88,645.8234830575257,0.05921052631578949
89,645.8234830575257,0.07894736842105265
90,645.8234830575257,0.07236842105263153
91,645.8234830575257,0.06578947368421051
92,648.6209613869187,0.07894736842105265
93,648.6209613869187,0.09868421052631582
94,648.6209613869187,0.11184210526315785
95,648.6209613869187,0.09210526315789469
96,648.6209613869187,0.10526315789473684
97,648.6209613869187,0.08552631578947367
98,651.4184397163122,0.20394736842105265
99,651.4184397163122,0.19736842105263153
100,651.4184397163122,0.1578947368421053
101,651.4184397163122,0.17105263157894735
102,651.4184397163122,0.17763157894736847
103,651.4184397163122,0.14473684210526316
104,651.4184397163122,0.1907894736842105
105,651.4184397163122,0.13815789473684215
106,651.4184397163122,0.16447368421052633
107,651.4184397163122,0.11184210526315785
108,651.4184397163122,0.15131578947368418
109,651.4184397163122,0.11842105263157898
110,651.4184397163122,0.125
111,651.4184397163122,0.1842105263157895
112,651.4184397163122,0.13157894736842102
113,651.4184397163122,0.25
114,651.4184397163122,0.23684210526315785
115,651.4184397163122,0.24342105263157898
116,651.4184397163122,0.23026315789473684
117,651.4184397163122,0.22368421052631582
118,651.4184397163122,0.29605263157894735
119,651.4184397163122,0.2828947368421053
120,651.4184397163122,0.2894736842105263
121,651.4184397163122,0.2171052631578947
122,651.4184397163122,0.26973684210526316
123,651.4184397163122,0.21052631578947367
124,651.4184397163122,0.26315789473684215
125,651.4184397163122,0.2763157894736842
126,651.4184397163122,0.3157894736842105
127,651.4184397163122,0.3026315789473685
128,651.4184397163122,0.256578947368421
129,651.4184397163122,0.3092105263157895
130,654.2159180457052,0.39473684210526316
131,654.2159180457052,0.35526315789473684
132,654.2159180457052,0.381578947368421
133,654.2159180457052,0.32894736842105265
134,654.2159180457052,0.3355263157894737
135,654.2159180457052,0.38815789473684215
136,654.2159180457052,0.368421052631579
137,654.2159180457052,0.4144736842105263
138,654.2159180457052,0.3486842105263158
139,654.2159180457052,0.4013157894736842
140,654.2159180457052,0.3223684210526315
141,654.2159180457052,0.375
142,654.2159180457052,0.3421052631578947
143,654.2159180457052,0.3157894736842105
144,654.2159180457052,0.4078947368421053
145,654.2159180457052,0.36184210526315785
146,657.0133963750986,0.3486842105263158
147,657.0133963750986,0.3355263157894737
148,657.0133963750986,0.39473684210526316
149,657.0133963750986,0.4013157894736842
150,657.0133963750986,0.3421052631578947
151,657.0133963750986,0.381578947368421
152,657.0133963750986,0.35526315789473684
153,657.0133963750986,0.38815789473684215
154,657.0133963750986,0.3092105263157895
155,657.0133963750986,0.3026315789473685
156,657.0133963750986,0.3157894736842105
157,657.0133963750986,0.29605263157894735
158,657.0133963750986,0.375
159,657.0133963750986,0.4144736842105263
160,657.0133963750986,0.368421052631579
161,657.0133963750986,0.36184210526315785
162,657.0133963750986,0.4078947368421053
163,657.0133963750986,0.32894736842105265
164,657.0133963750986,0.3223684210526315
165,659.8108747044917,0.2894736842105263
166,659.8108747044917,0.29605263157894735
167,659.8108747044917,0.26315789473684215
168,659.8108747044917,0.2828947368421053
169,659.8108747044917,0.2763157894736842
170,659.8108747044917,0.256578947368421
171,659.8108747044917,0.26973684210526316
172,659.8108747044917,0.2171052631578947
173,659.8108747044917,0.1907894736842105
174,659.8108747044917,0.24342105263157898
175,659.8108747044917,0.19736842105263153
176,659.8108747044917,0.21052631578947367
177,659.8108747044917,0.23684210526315785
178,659.8108747044917,0.25
179,659.8108747044917,0.23026315789473684
180,659.8108747044917,0.20394736842105265
181,659.8108747044917,0.22368421052631582
182,662.6083530338851,0.11184210526315785
183,662.6083530338851,0.13157894736842102
184,662.6083530338851,0.1578947368421053
185,662.6083530338851,0.09868421052631582
186,662.6083530338851,0.08552631578947367
187,662.6083530338851,0.10526315789473684
188,662.6083530338851,0.16447368421052633
189,662.6083530338851,0.17105263157894735
190,662.6083530338851,0.1842105263157895
191,662.6083530338851,0.13815789473684215
192,662.6083530338851,0.17763157894736847
193,662.6083530338851,0.14473684210526316
194,662.6083530338851,0.125
195,662.6083530338851,0.11842105263157898
196,662.6083530338851,0.15131578947368418
197,662.6083530338851,0.1907894736842105
198,662.6083530338851,0.07894736842105265
199,662.6083530338851,0.09210526315789469
200,665.4058313632781,0.06578947368421051
201,665.4058313632781,0.07236842105263153
202,665.4058313632781,0.07894736842105265
203,665.4058313632781,0.05921052631578949
204,668.2033096926716,0.05921052631578949
205,668.2033096926716,0.03947368421052633
206,668.2033096926716,0.052631578947368474
207,668.2033096926716,0.046052631578947345
208,671.0007880220646,0.03289473684210531
209,671.0007880220646,0.03947368421052633
210,673.7982663514576,0.03289473684210531
211,676.5957446808511,0.02631578947368418
212,676.5957446808511,0.03289473684210531
213,679.3932230102441,0.02631578947368418
214,682.1907013396376,0.02631578947368418
215,684.9881796690306,0.02631578947368418
216,687.7856579984241,0.02631578947368418
217,690.5831363278171,0.02631578947368418
218,693.3806146572106,0.02631578947368418
219,696.1780929866036,0.02631578947368418
220,698.9755713159971,0.02631578947368418
221,701.7730496453901,0.02631578947368418
222,704.5705279747831,0.02631578947368418
223,707.3680063041766,0.02631578947368418
224,707.3680063041766,0.019736842105263164
225,710.1654846335696,0.019736842105263164
226,712.962962962963,0.019736842105263164
227,715.7604412923561,0.019736842105263164
228,718.5579196217495,0.019736842105263164
229,721.3553979511425,0.019736842105263164
230,724.152876280536,0.019736842105263164
231,726.950354609929,0.019736842105263164
232,729.7478329393225,0.019736842105263164
233,732.5453112687155,0.019736842105263164
234,735.3427895981085,0.019736842105263164
235,738.140267927502,0.019736842105263164
236,740.937746256895,0.019736842105263164
237,743.7352245862885,0.019736842105263164
238,746.5327029156815,0.019736842105263164
239,749.330181245075,0.019736842105263164
240,752.127659574468,0.019736842105263164
241,754.9251379038615,0.019736842105263164
242,757.7226162332545,0.019736842105263164
243,760.520094562648,0.019736842105263164
244,763.317572892041,0.019736842105263164
245,766.115051221434,0.019736842105263164
246,768.9125295508275,0.019736842105263164
247,771.7100078802205,0.019736842105263164
248,774.507486209614,0.019736842105263164
249,777.304964539007,0.019736842105263164
250,780.1024428684004,0.019736842105263164
251,782.8999211977934,0.019736842105263164
252,785.6973995271869,0.019736842105263164
253,788.4948778565799,0.019736842105263164
254,791.2923561859734,0.019736842105263164
255,794.0898345153664,0.019736842105263164
256,796.8873128447594,0.019736842105263164
257,799.6847911741529,0.019736842105263164
258,802.4822695035459,0.019736842105263164
259,805.2797478329394,0.019736842105263164
260,808.0772261623324,0.019736842105263164
261,810.8747044917259,0.019736842105263164
262,813.6721828211189,0.019736842105263164
263,816.4696611505124,0.019736842105263164
264,819.2671394799054,0.019736842105263164
265,819.2671394799054,0.02631578947368418
266,822.0646178092989,0.02631578947368418
267,822.0646178092989,0.019736842105263164
268,824.8620961386919,0.019736842105263164
269,827.6595744680849,0.019736842105263164
270,830.4570527974784,0.02631578947368418
271,830.4570527974784,0.019736842105263164
272,833.2545311268714,0.02631578947368418
273,836.0520094562648,0.02631578947368418
274,836.0520094562648,0.019736842105263164
275,838.8494877856579,0.019736842105263164
276,838.8494877856579,0.02631578947368418
277,841.6469661150513,0.02631578947368418
278,844.4444444444443,0.02631578947368418
279,847.2419227738378,0.02631578947368418
280,850.0394011032308,0.03289473684210531
281,850.0394011032308,0.02631578947368418
282,852.8368794326243,0.03289473684210531
283,855.6343577620173,0.03289473684210531
284,855.6343577620173,0.052631578947368474
285,855.6343577620173,0.046052631578947345
286,855.6343577620173,0.03947368421052633
287,858.4318360914103,0.05921052631578949
288,858.4318360914103,0.06578947368421051
289,858.4318360914103,0.052631578947368474
290,858.4318360914103,0.07236842105263153
291,861.2293144208038,0.07236842105263153
292,861.2293144208038,0.08552631578947367
293,861.2293144208038,0.07894736842105265
294,864.0267927501968,0.07894736842105265
295,864.0267927501968,0.052631578947368474
296,864.0267927501968,0.06578947368421051
297,864.0267927501968,0.05921052631578949
298,864.0267927501968,0.07236842105263153
299,866.8242710795903,0.03947368421052633
300,866.8242710795903,0.052631578947368474
301,866.8242710795903,0.046052631578947345
302,866.8242710795903,0.03289473684210531
303,869.6217494089833,0.03289473684210531
304,872.4192277383768,0.03289473684210531
305,872.4192277383768,0.02631578947368418
306,875.2167060677698,0.02631578947368418
307,878.0141843971633,0.02631578947368418
308,880.8116627265563,0.02631578947368418
309,883.6091410559497,0.02631578947368418
310,886.4066193853428,0.02631578947368418
311,889.2040977147362,0.02631578947368418
312,892.0015760441293,0.02631578947368418
313,894.7990543735223,0.02631578947368418
314,897.5965327029157,0.02631578947368418
315,900.3940110323088,0.02631578947368418
316,903.1914893617022,0.02631578947368418
317,905.9889676910952,0.02631578947368418
318,908.7864460204887,0.02631578947368418
319,911.5839243498817,0.02631578947368418
320,914.3814026792752,0.02631578947368418
321,917.1788810086682,0.02631578947368418
322,919.9763593380617,0.02631578947368418
323,922.7738376674547,0.02631578947368418
324,925.5713159968477,0.02631578947368418
325,928.3687943262412,0.02631578947368418
326,931.1662726556342,0.02631578947368418
327,933.9637509850277,0.02631578947368418
328,936.7612293144207,0.02631578947368418
329,939.5587076438142,0.02631578947368418
330,942.3561859732072,0.02631578947368418
331,945.1536643026006,0.02631578947368418
332,945.1536643026006,0.03289473684210531
333,947.9511426319937,0.02631578947368418
334,947.9511426319937,0.03289473684210531
335,950.7486209613871,0.03289473684210531
336,953.5460992907801,0.03289473684210531
337,956.3435776201732,0.03289473684210531
338,959.1410559495666,0.03289473684210531
339,961.9385342789597,0.03289473684210531
340,964.7360126083531,0.03289473684210531
341,967.5334909377461,0.03289473684210531
342,967.5334909377461,0.03947368421052633
343,970.3309692671396,0.03947368421052633
344,973.1284475965326,0.03947368421052633
345,975.9259259259261,0.03947368421052633
346,978.7234042553191,0.03947368421052633
347,981.5208825847126,0.03947368421052633
348,984.3183609141056,0.03947368421052633
349,987.1158392434986,0.046052631578947345
350,987.1158392434986,0.03947368421052633
351,989.9133175728921,0.046052631578947345
352,992.7107959022851,0.046052631578947345
353,992.7107959022851,0.052631578947368474
354,995.5082742316786,0.052631578947368474
355,998.3057525610716,0.05921052631578949
356,998.3057525610716,0.052631578947368474
357,1001.103230890465,0.05921052631578949
358,1003.9007092198581,0.06578947368421051
359,1003.9007092198581,0.05921052631578949
360,1006.6981875492515,0.06578947368421051
361,1009.4956658786446,0.07236842105263153
362,1009.4956658786446,0.06578947368421051
363,1012.293144208038,0.07236842105263153
364,1015.090622537431,0.07236842105263153
365,1017.8881008668241,0.07236842105263153
366,1020.6855791962175,0.07236842105263153
367,1023.4830575256105,0.07894736842105265
368,1023.4830575256105,0.07236842105263153
369,1026.280535855004,0.07894736842105265
370,1029.078014184397,0.07894736842105265
371,1029.078014184397,0.08552631578947367
372,1031.8754925137905,0.08552631578947367
373,1034.6729708431835,0.08552631578947367
374,1034.6729708431835,0.09210526315789469
375,1037.470449172577,0.09868421052631582
376,1037.470449172577,0.09210526315789469
377,1040.26792750197,0.11184210526315785
378,1040.26792750197,0.09868421052631582
379,1040.26792750197,0.10526315789473684
380,1043.0654058313635,0.11842105263157898
381,1043.0654058313635,0.11184210526315785
382,1045.8628841607565,0.13157894736842102
383,1045.8628841607565,0.125
384,1045.8628841607565,0.11842105263157898
385,1048.6603624901495,0.13815789473684215
386,1048.6603624901495,0.16447368421052633
387,1048.6603624901495,0.17105263157894735
388,1048.6603624901495,0.15131578947368418
389,1048.6603624901495,0.13157894736842102
390,1048.6603624901495,0.1578947368421053
391,1048.6603624901495,0.14473684210526316
392,1051.457840819543,0.17105263157894735
393,1051.457840819543,0.1842105263157895
394,1051.457840819543,0.1907894736842105
395,1051.457840819543,0.17763157894736847
396,1054.255319148936,0.21052631578947367
397,1054.255319148936,0.25
398,1054.255319148936,0.19736842105263153
399,1054.255319148936,0.23026315789473684
400,1054.255319148936,0.2171052631578947
401,1054.255319148936,0.23684210526315785
402,1054.255319148936,0.24342105263157898
403,1054.255319148936,0.1907894736842105
404,1054.255319148936,0.20394736842105265
405,1054.255319148936,0.22368421052631582
406,1057.0527974783295,0.26973684210526316
407,1057.0527974783295,0.2763157894736842
408,1057.0527974783295,0.25
409,1057.0527974783295,0.26315789473684215
410,1057.0527974783295,0.256578947368421
411,1059.8502758077225,0.2894736842105263
412,1059.8502758077225,0.2828947368421053
413,1059.8502758077225,0.2763157894736842
414,1062.647754137116,0.2763157894736842
415,1062.647754137116,0.26315789473684215
416,1062.647754137116,0.2828947368421053
417,1062.647754137116,0.26973684210526316
418,1065.445232466509,0.25
419,1065.445232466509,0.23026315789473684
420,1065.445232466509,0.256578947368421
421,1065.445232466509,0.26315789473684215
422,1065.445232466509,0.23684210526315785
423,1065.445232466509,0.24342105263157898
424,1068.2427107959024,0.23026315789473684
425,1071.0401891252955,0.23684210526315785
426,1071.0401891252955,0.23026315789473684
427,1071.0401891252955,0.24342105263157898
428,1073.837667454689,0.2763157894736842
429,1073.837667454689,0.29605263157894735
430,1073.837667454689,0.2828947368421053
431,1073.837667454689,0.26973684210526316
432,1073.837667454689,0.2894736842105263
433,1073.837667454689,0.256578947368421
434,1073.837667454689,0.25
435,1073.837667454689,0.3026315789473685
436,1073.837667454689,0.26315789473684215
437,1076.635145784082,0.3421052631578947
438,1076.635145784082,0.3157894736842105
439,1076.635145784082,0.3355263157894737
440,1076.635145784082,0.3026315789473685
441,1076.635145784082,0.3092105263157895
442,1076.635145784082,0.32894736842105265
443,1076.635145784082,0.3223684210526315
444,1076.635145784082,0.3486842105263158
445,1079.432624113475,0.4671052631578947
446,1079.432624113475,0.4276315789473685
447,1079.432624113475,0.38815789473684215
448,1079.432624113475,0.4605263157894737
449,1079.432624113475,0.4144736842105263
450,1079.432624113475,0.42105263157894735
451,1079.432624113475,0.368421052631579
452,1079.432624113475,0.35526315789473684
453,1079.432624113475,0.375
454,1079.432624113475,0.45394736842105265
455,1079.432624113475,0.381578947368421
456,1079.432624113475,0.4736842105263158
457,1079.432624113475,0.4473684210526315
458,1079.432624113475,0.4342105263157895
459,1079.432624113475,0.39473684210526316
460,1079.432624113475,0.3486842105263158
461,1079.432624113475,0.4013157894736842
462,1079.432624113475,0.36184210526315785
463,1079.432624113475,0.4078947368421053
464,1079.432624113475,0.4407894736842105
465,1082.2301024428684,0.48026315789473684
466,1082.2301024428684,0.4736842105263158
467,1082.2301024428684,0.493421052631579
468,1082.2301024428684,0.5263157894736843
469,1082.2301024428684,0.506578947368421
