,wavenumbers,absorbance
0,452.797478329393,0.02631578947368418
1,455.5949566587865,0.03289473684210531
2,455.5949566587865,0.02631578947368418
3,458.3924349881795,0.03289473684210531
4,461.189913317573,0.03947368421052633
5,461.189913317573,0.03289473684210531
6,463.987391646966,0.03947368421052633
7,466.78486997635946,0.03947368421052633
8,469.5823483057525,0.03947368421052633
9,472.37982663514595,0.03947368421052633
10,475.17730496453896,0.03947368421052633
11,477.97478329393243,0.03947368421052633
12,480.77226162332545,0.03947368421052633
13,483.56973995271846,0.03947368421052633
14,483.56973995271846,0.03289473684210531
15,486.36721828211193,0.03289473684210531
16,489.16469661150495,0.03947368421052633
17,489.16469661150495,0.03289473684210531
18,491.9621749408984,0.03947368421052633
19,494.75965327029144,0.03947368421052633
20,497.5571315996849,0.03947368421052633
21,500.3546099290779,0.03947368421052633
22,503.1520882584714,0.03947368421052633
23,505.9495665878644,0.03947368421052633
24,508.7470449172579,0.03947368421052633
25,511.5445232466509,0.03947368421052633
26,514.3420015760439,0.03947368421052633
27,517.1394799054374,0.03947368421052633
28,519.9369582348304,0.03947368421052633
29,522.7344365642239,0.03947368421052633
30,525.5319148936169,0.03947368421052633
31,528.3293932230104,0.03947368421052633
32,531.1268715524034,0.03947368421052633
33,533.9243498817968,0.03947368421052633
34,536.7218282111899,0.03947368421052633
35,539.5193065405833,0.03947368421052633
36,542.3167848699763,0.03947368421052633
37,545.1142631993694,0.03947368421052633
38,547.9117415287628,0.03947368421052633
39,550.7092198581558,0.03947368421052633
40,553.5066981875493,0.03289473684210531
41,553.5066981875493,0.03947368421052633
42,556.3041765169423,0.03289473684210531
43,559.1016548463358,0.03289473684210531
44,561.8991331757288,0.02631578947368418
45,561.8991331757288,0.03289473684210531
46,564.6966115051223,0.02631578947368418
47,567.4940898345153,0.02631578947368418
48,570.2915681639088,0.02631578947368418
49,570.2915681639088,0.019736842105263164
50,573.0890464933018,0.019736842105263164
51,575.8865248226948,0.019736842105263164
52,578.6840031520883,0.019736842105263164
53,581.4814814814813,0.019736842105263164
54,584.2789598108748,0.019736842105263164
55,587.0764381402678,0.019736842105263164
56,589.8739164696613,0.019736842105263164
57,592.6713947990543,0.019736842105263164
58,595.4688731284477,0.019736842105263164
59,598.2663514578408,0.019736842105263164
60,601.0638297872342,0.019736842105263164
61,603.8613081166272,0.019736842105263164
62,606.6587864460207,0.019736842105263164
63,609.4562647754137,0.019736842105263164
64,612.2537431048067,0.019736842105263164
65,615.0512214342002,0.019736842105263164
66,617.8486997635932,0.019736842105263164
67,620.6461780929867,0.019736842105263164
68,623.4436564223797,0.019736842105263164
69,626.2411347517732,0.019736842105263164
70,629.0386130811662,0.019736842105263164
71,631.8360914105597,0.019736842105263164
72,634.6335697399527,0.019736842105263164
73,637.4310480693462,0.019736842105263164
74,640.2285263987392,0.019736842105263164
75,643.0260047281322,0.019736842105263164
76,645.8234830575257,0.019736842105263164
77,648.6209613869187,0.019736842105263164
78,651.4184397163122,0.019736842105263164
79,654.2159180457052,0.019736842105263164
80,657.0133963750986,0.019736842105263164
81,659.8108747044917,0.019736842105263164
82,662.6083530338851,0.019736842105263164
83,665.4058313632781,0.019736842105263164
84,668.2033096926716,0.019736842105263164
85,671.0007880220646,0.019736842105263164
86,673.7982663514576,0.019736842105263164
87,676.5957446808511,0.019736842105263164
88,679.3932230102441,0.019736842105263164
89,682.1907013396376,0.019736842105263164
90,684.9881796690306,0.019736842105263164
91,684.9881796690306,0.02631578947368418
92,687.7856579984241,0.02631578947368418
93,687.7856579984241,0.03947368421052633
94,687.7856579984241,0.052631578947368474
95,687.7856579984241,0.03289473684210531
96,687.7856579984241,0.046052631578947345
97,690.5831363278171,0.07236842105263153
98,690.5831363278171,0.06578947368421051
99,690.5831363278171,0.05921052631578949
100,690.5831363278171,0.07894736842105265
101,690.5831363278171,0.052631578947368474
102,693.3806146572106,0.23684210526315785
103,693.3806146572106,0.21052631578947367
104,693.3806146572106,0.22368421052631582
105,693.3806146572106,0.23026315789473684
106,693.3806146572106,0.2171052631578947
107,693.3806146572106,0.1578947368421053
108,693.3806146572106,0.09210526315789469
109,693.3806146572106,0.125
110,693.3806146572106,0.20394736842105265
111,693.3806146572106,0.13157894736842102
112,693.3806146572106,0.13815789473684215
113,693.3806146572106,0.08552631578947367
114,693.3806146572106,0.07894736842105265
115,693.3806146572106,0.14473684210526316
116,693.3806146572106,0.09868421052631582
117,693.3806146572106,0.15131578947368418
118,693.3806146572106,0.16447368421052633
119,693.3806146572106,0.17105263157894735
120,693.3806146572106,0.17763157894736847
121,693.3806146572106,0.1842105263157895
122,693.3806146572106,0.11184210526315785
123,693.3806146572106,0.1907894736842105
124,693.3806146572106,0.19736842105263153
125,693.3806146572106,0.10526315789473684
126,693.3806146572106,0.11842105263157898
127,696.1780929866036,0.26973684210526316
128,696.1780929866036,0.26315789473684215
129,696.1780929866036,0.256578947368421
130,696.1780929866036,0.2763157894736842
131,696.1780929866036,0.2828947368421053
132,696.1780929866036,0.24342105263157898
133,696.1780929866036,0.23684210526315785
134,696.1780929866036,0.2894736842105263
135,696.1780929866036,0.29605263157894735
136,696.1780929866036,0.25
137,698.9755713159971,0.25
138,698.9755713159971,0.256578947368421
139,698.9755713159971,0.26315789473684215
140,698.9755713159971,0.2894736842105263
141,698.9755713159971,0.26973684210526316
142,698.9755713159971,0.2828947368421053
143,698.9755713159971,0.2763157894736842
144,698.9755713159971,0.3026315789473685
145,698.9755713159971,0.29605263157894735
146,701.7730496453901,0.19736842105263153
147,701.7730496453901,0.22368421052631582
148,701.7730496453901,0.20394736842105265
149,701.7730496453901,0.21052631578947367
150,701.7730496453901,0.2171052631578947
151,701.7730496453901,0.23026315789473684
152,701.7730496453901,0.1907894736842105
153,701.7730496453901,0.24342105263157898
154,701.7730496453901,0.25
155,701.7730496453901,0.23684210526315785
156,704.5705279747831,0.14473684210526316
157,704.5705279747831,0.15131578947368418
158,704.5705279747831,0.125
159,704.5705279747831,0.1578947368421053
160,704.5705279747831,0.16447368421052633
161,704.5705279747831,0.17105263157894735
162,704.5705279747831,0.17763157894736847
163,704.5705279747831,0.13815789473684215
164,704.5705279747831,0.1842105263157895
165,704.5705279747831,0.13157894736842102
166,704.5705279747831,0.1907894736842105
167,707.3680063041766,0.09210526315789469
168,707.3680063041766,0.08552631578947367
169,707.3680063041766,0.10526315789473684
170,707.3680063041766,0.07894736842105265
171,707.3680063041766,0.07236842105263153
172,707.3680063041766,0.11184210526315785
173,707.3680063041766,0.05921052631578949
174,707.3680063041766,0.06578947368421051
175,707.3680063041766,0.052631578947368474
176,707.3680063041766,0.125
177,707.3680063041766,0.11842105263157898
178,707.3680063041766,0.09868421052631582
179,710.1654846335696,0.052631578947368474
180,710.1654846335696,0.03947368421052633
181,710.1654846335696,0.03289473684210531
182,710.1654846335696,0.046052631578947345
183,712.962962962963,0.03289473684210531
184,712.962962962963,0.02631578947368418
185,715.7604412923561,0.019736842105263164
186,715.7604412923561,0.02631578947368418
187,718.5579196217495,0.013157894736842146
188,718.5579196217495,0.019736842105263164
189,721.3553979511425,0.019736842105263164
190,724.152876280536,0.019736842105263164
191,724.152876280536,0.02631578947368418
192,726.950354609929,0.02631578947368418
193,726.950354609929,0.03289473684210531
194,729.7478329393225,0.03289473684210531
195,729.7478329393225,0.03947368421052633
196,732.5453112687155,0.03947368421052633
197,732.5453112687155,0.046052631578947345
198,732.5453112687155,0.052631578947368474
199,735.3427895981085,0.05921052631578949
200,735.3427895981085,0.052631578947368474
201,738.140267927502,0.05921052631578949
202,740.937746256895,0.05921052631578949
203,743.7352245862885,0.06578947368421051
204,743.7352245862885,0.05921052631578949
205,743.7352245862885,0.07236842105263153
206,743.7352245862885,0.07894736842105265
207,746.5327029156815,0.07894736842105265
208,746.5327029156815,0.08552631578947367
209,749.330181245075,0.08552631578947367
210,749.330181245075,0.09868421052631582
211,749.330181245075,0.11184210526315785
212,749.330181245075,0.09210526315789469
213,749.330181245075,0.10526315789473684
214,752.127659574468,0.11184210526315785
215,752.127659574468,0.11842105263157898
216,752.127659574468,0.125
217,754.9251379038615,0.13815789473684215
218,754.9251379038615,0.13157894736842102
219,754.9251379038615,0.14473684210526316
220,754.9251379038615,0.125
221,757.7226162332545,0.14473684210526316
222,760.520094562648,0.14473684210526316
223,760.520094562648,0.13157894736842102
224,760.520094562648,0.13815789473684215
225,763.317572892041,0.125
226,763.317572892041,0.13157894736842102
227,763.317572892041,0.11842105263157898
228,763.317572892041,0.11184210526315785
229,766.115051221434,0.09210526315789469
230,766.115051221434,0.10526315789473684
231,766.115051221434,0.11184210526315785
232,766.115051221434,0.09868421052631582
233,768.9125295508275,0.09210526315789469
234,768.9125295508275,0.08552631578947367
235,768.9125295508275,0.06578947368421051
236,768.9125295508275,0.07894736842105265
237,768.9125295508275,0.07236842105263153
238,771.7100078802205,0.06578947368421051
239,771.7100078802205,0.05921052631578949
240,774.507486209614,0.052631578947368474
241,774.507486209614,0.046052631578947345
242,774.507486209614,0.05921052631578949
243,777.304964539007,0.046052631578947345
244,777.304964539007,0.03947368421052633
245,780.1024428684004,0.03947368421052633
246,780.1024428684004,0.03289473684210531
247,782.8999211977934,0.03289473684210531
248,785.6973995271869,0.02631578947368418
249,785.6973995271869,0.03289473684210531
250,788.4948778565799,0.02631578947368418
251,788.4948778565799,0.03289473684210531
252,791.2923561859734,0.02631578947368418
253,794.0898345153664,0.02631578947368418
254,796.8873128447594,0.02631578947368418
255,799.6847911741529,0.03289473684210531
256,799.6847911741529,0.02631578947368418
257,802.4822695035459,0.03289473684210531
258,805.2797478329394,0.03289473684210531
259,808.0772261623324,0.03289473684210531
260,810.8747044917259,0.03289473684210531
261,813.6721828211189,0.03289473684210531
262,816.4696611505124,0.03289473684210531
263,819.2671394799054,0.03289473684210531
264,822.0646178092989,0.03289473684210531
265,822.0646178092989,0.03947368421052633
266,824.8620961386919,0.046052631578947345
267,824.8620961386919,0.03947368421052633
268,827.6595744680849,0.046052631578947345
269,830.4570527974784,0.052631578947368474
270,830.4570527974784,0.05921052631578949
271,833.2545311268714,0.05921052631578949
272,836.0520094562648,0.06578947368421051
273,836.0520094562648,0.05921052631578949
274,838.8494877856579,0.06578947368421051
275,841.6469661150513,0.06578947368421051
276,841.6469661150513,0.05921052631578949
277,844.4444444444443,0.05921052631578949
278,847.2419227738378,0.05921052631578949
279,850.0394011032308,0.052631578947368474
280,850.0394011032308,0.05921052631578949
281,852.8368794326243,0.052631578947368474
282,852.8368794326243,0.046052631578947345
283,855.6343577620173,0.046052631578947345
284,858.4318360914103,0.046052631578947345
285,861.2293144208038,0.046052631578947345
286,861.2293144208038,0.03947368421052633
287,864.0267927501968,0.03947368421052633
288,866.8242710795903,0.03947368421052633
289,869.6217494089833,0.03947368421052633
290,872.4192277383768,0.03947368421052633
291,875.2167060677698,0.046052631578947345
292,875.2167060677698,0.03947368421052633
293,878.0141843971633,0.03947368421052633
294,880.8116627265563,0.03947368421052633
295,883.6091410559497,0.03947368421052633
296,886.4066193853428,0.03947368421052633
297,889.2040977147362,0.03947368421052633
298,892.0015760441293,0.046052631578947345
299,892.0015760441293,0.03947368421052633
300,894.7990543735223,0.03947368421052633
301,894.7990543735223,0.046052631578947345
302,897.5965327029157,0.052631578947368474
303,897.5965327029157,0.046052631578947345
304,900.3940110323088,0.052631578947368474
305,903.1914893617022,0.05921052631578949
306,903.1914893617022,0.052631578947368474
307,905.9889676910952,0.05921052631578949
308,908.7864460204887,0.05921052631578949
309,911.5839243498817,0.05921052631578949
310,914.3814026792752,0.06578947368421051
311,914.3814026792752,0.05921052631578949
312,917.1788810086682,0.06578947368421051
313,917.1788810086682,0.07236842105263153
314,917.1788810086682,0.07894736842105265
315,919.9763593380617,0.07894736842105265
316,922.7738376674547,0.08552631578947367
317,922.7738376674547,0.07894736842105265
318,925.5713159968477,0.08552631578947367
319,928.3687943262412,0.09210526315789469
320,928.3687943262412,0.08552631578947367
321,931.1662726556342,0.09868421052631582
322,931.1662726556342,0.09210526315789469
323,933.9637509850277,0.09868421052631582
324,933.9637509850277,0.10526315789473684
325,936.7612293144207,0.10526315789473684
326,939.5587076438142,0.10526315789473684
327,942.3561859732072,0.10526315789473684
328,945.1536643026006,0.09868421052631582
329,945.1536643026006,0.10526315789473684
330,947.9511426319937,0.09868421052631582
331,950.7486209613871,0.09868421052631582
332,953.5460992907801,0.10526315789473684
333,953.5460992907801,0.09868421052631582
334,956.3435776201732,0.10526315789473684
335,959.1410559495666,0.10526315789473684
336,961.9385342789597,0.10526315789473684
337,961.9385342789597,0.09210526315789469
338,961.9385342789597,0.09868421052631582
339,964.7360126083531,0.08552631578947367
340,964.7360126083531,0.09210526315789469
341,967.5334909377461,0.08552631578947367
342,967.5334909377461,0.07894736842105265
343,970.3309692671396,0.07236842105263153
344,970.3309692671396,0.07894736842105265
345,973.1284475965326,0.08552631578947367
346,973.1284475965326,0.07894736842105265
347,973.1284475965326,0.07236842105263153
348,975.9259259259261,0.08552631578947367
349,978.7234042553191,0.09210526315789469
350,978.7234042553191,0.08552631578947367
351,981.5208825847126,0.09210526315789469
352,981.5208825847126,0.09868421052631582
353,984.3183609141056,0.09868421052631582
354,984.3183609141056,0.10526315789473684
355,987.1158392434986,0.11842105263157898
356,987.1158392434986,0.10526315789473684
357,987.1158392434986,0.11184210526315785
358,989.9133175728921,0.11842105263157898
359,992.7107959022851,0.11842105263157898
360,995.5082742316786,0.11842105263157898
361,995.5082742316786,0.11184210526315785
362,998.3057525610716,0.11184210526315785
363,1001.103230890465,0.10526315789473684
364,1001.103230890465,0.11184210526315785
365,1003.9007092198581,0.09868421052631582
366,1003.9007092198581,0.10526315789473684
367,1006.6981875492515,0.09868421052631582
368,1006.6981875492515,0.09210526315789469
369,1009.4956658786446,0.09210526315789469
370,1012.293144208038,0.09868421052631582
371,1012.293144208038,0.09210526315789469
372,1015.090622537431,0.09868421052631582
373,1017.8881008668241,0.10526315789473684
374,1017.8881008668241,0.09868421052631582
375,1020.6855791962175,0.10526315789473684
376,1023.4830575256105,0.11842105263157898
377,1023.4830575256105,0.10526315789473684
378,1023.4830575256105,0.11184210526315785
379,1026.280535855004,0.11842105263157898
380,1029.078014184397,0.11842105263157898
381,1031.8754925137905,0.11842105263157898
382,1031.8754925137905,0.11184210526315785
383,1034.6729708431835,0.11184210526315785
384,1034.6729708431835,0.11842105263157898
385,1034.6729708431835,0.125
386,1037.470449172577,0.125
387,1037.470449172577,0.13157894736842102
388,1040.26792750197,0.14473684210526316
389,1040.26792750197,0.13815789473684215
390,1040.26792750197,0.13157894736842102
391,1043.0654058313635,0.1578947368421053
392,1043.0654058313635,0.15131578947368418
393,1043.0654058313635,0.14473684210526316
394,1045.8628841607565,0.1578947368421053
395,1045.8628841607565,0.16447368421052633
396,1048.6603624901495,0.17763157894736847
397,1048.6603624901495,0.17105263157894735
398,1048.6603624901495,0.16447368421052633
399,1051.457840819543,0.1842105263157895
400,1051.457840819543,0.17763157894736847
401,1054.255319148936,0.1842105263157895
402,1054.255319148936,0.1907894736842105
403,1054.255319148936,0.19736842105263153
404,1057.0527974783295,0.19736842105263153
405,1057.0527974783295,0.20394736842105265
406,1059.8502758077225,0.20394736842105265
407,1062.647754137116,0.21052631578947367
408,1062.647754137116,0.20394736842105265
409,1065.445232466509,0.20394736842105265
410,1065.445232466509,0.21052631578947367
411,1068.2427107959024,0.20394736842105265
412,1071.0401891252955,0.20394736842105265
413,1071.0401891252955,0.19736842105263153
414,1073.837667454689,0.1907894736842105
415,1073.837667454689,0.19736842105263153
416,1073.837667454689,0.1842105263157895
417,1076.635145784082,0.1842105263157895
418,1076.635145784082,0.17763157894736847
419,1079.432624113475,0.17105263157894735
420,1079.432624113475,0.17763157894736847
421,1079.432624113475,0.16447368421052633
422,1082.2301024428684,0.16447368421052633
423,1085.0275807722614,0.16447368421052633
424,1085.0275807722614,0.1578947368421053
425,1087.825059101655,0.1578947368421053
426,1090.622537431048,0.16447368421052633
427,1090.622537431048,0.1578947368421053
428,1093.4200157604414,0.17105263157894735
429,1093.4200157604414,0.16447368421052633
430,1096.2174940898344,0.17763157894736847
431,1096.2174940898344,0.1842105263157895
432,1096.2174940898344,0.17105263157894735
433,1099.014972419228,0.1907894736842105
434,1099.014972419228,0.1842105263157895
435,1099.014972419228,0.19736842105263153
436,1101.812450748621,0.20394736842105265
437,1101.812450748621,0.21052631578947367
438,1101.812450748621,0.19736842105263153
439,1104.6099290780144,0.23684210526315785
440,1104.6099290780144,0.23026315789473684
441,1104.6099290780144,0.22368421052631582
442,1104.6099290780144,0.2171052631578947
443,1104.6099290780144,0.21052631578947367
444,1107.4074074074074,0.23684210526315785
445,1107.4074074074074,0.25
446,1107.4074074074074,0.256578947368421
447,1107.4074074074074,0.24342105263157898
448,1110.2048857368004,0.256578947368421
449,1110.2048857368004,0.26315789473684215
450,1110.2048857368004,0.2828947368421053
451,1110.2048857368004,0.26973684210526316
452,1110.2048857368004,0.2763157894736842
453,1113.0023640661939,0.2828947368421053
454,1113.0023640661939,0.2894736842105263
455,1115.799842395587,0.29605263157894735
456,1115.799842395587,0.2894736842105263
457,1118.5973207249804,0.29605263157894735
458,1121.3947990543734,0.29605263157894735
459,1121.3947990543734,0.3026315789473685
460,1124.1922773837669,0.3026315789473685
461,1126.9897557131599,0.3092105263157895
462,1126.9897557131599,0.3026315789473685
463,1129.7872340425533,0.3223684210526315
464,1129.7872340425533,0.3157894736842105
465,1129.7872340425533,0.3092105263157895
466,1129.7872340425533,0.32894736842105265
467,1132.5847123719464,0.32894736842105265
468,1132.5847123719464,0.3223684210526315
