,wavenumbers,absorbance
0,452.797478329393,0.02631578947368418
1,455.5949566587865,0.02631578947368418
2,458.3924349881795,0.02631578947368418
3,461.189913317573,0.02631578947368418
4,463.987391646966,0.02631578947368418
5,466.78486997635946,0.02631578947368418
6,469.5823483057525,0.02631578947368418
7,472.37982663514595,0.02631578947368418
8,475.17730496453896,0.02631578947368418
9,477.97478329393243,0.02631578947368418
10,480.77226162332545,0.02631578947368418
11,483.56973995271846,0.02631578947368418
12,486.36721828211193,0.02631578947368418
13,486.36721828211193,0.03289473684210531
14,489.16469661150495,0.03289473684210531
15,489.16469661150495,0.02631578947368418
16,491.9621749408984,0.02631578947368418
17,494.75965327029144,0.02631578947368418
18,497.5571315996849,0.02631578947368418
19,500.3546099290779,0.02631578947368418
20,500.3546099290779,0.019736842105263164
21,503.1520882584714,0.019736842105263164
22,505.9495665878644,0.019736842105263164
23,508.7470449172579,0.019736842105263164
24,511.5445232466509,0.019736842105263164
25,514.3420015760439,0.019736842105263164
26,517.1394799054374,0.019736842105263164
27,519.9369582348304,0.019736842105263164
28,522.7344365642239,0.019736842105263164
29,525.5319148936169,0.019736842105263164
30,528.3293932230104,0.019736842105263164
31,528.3293932230104,0.02631578947368418
32,531.1268715524034,0.02631578947368418
33,533.9243498817968,0.03289473684210531
34,533.9243498817968,0.02631578947368418
35,536.7218282111899,0.03289473684210531
36,539.5193065405833,0.03289473684210531
37,539.5193065405833,0.03947368421052633
38,542.3167848699763,0.03947368421052633
39,545.1142631993694,0.046052631578947345
40,545.1142631993694,0.03947368421052633
41,547.9117415287628,0.052631578947368474
42,547.9117415287628,0.046052631578947345
43,550.7092198581558,0.05921052631578949
44,550.7092198581558,0.052631578947368474
45,553.5066981875493,0.05921052631578949
46,556.3041765169423,0.05921052631578949
47,559.1016548463358,0.05921052631578949
48,559.1016548463358,0.06578947368421051
49,561.8991331757288,0.06578947368421051
50,564.6966115051223,0.06578947368421051
51,567.4940898345153,0.06578947368421051
52,567.4940898345153,0.05921052631578949
53,570.2915681639088,0.05921052631578949
54,573.0890464933018,0.05921052631578949
55,575.8865248226948,0.05921052631578949
56,578.6840031520883,0.05921052631578949
57,581.4814814814813,0.05921052631578949
58,581.4814814814813,0.052631578947368474
59,584.2789598108748,0.052631578947368474
60,587.0764381402678,0.052631578947368474
61,587.0764381402678,0.046052631578947345
62,589.8739164696613,0.046052631578947345
63,592.6713947990543,0.046052631578947345
64,592.6713947990543,0.03947368421052633
65,595.4688731284477,0.03947368421052633
66,598.2663514578408,0.03289473684210531
67,598.2663514578408,0.03947368421052633
68,601.0638297872342,0.03289473684210531
69,603.8613081166272,0.03289473684210531
70,606.6587864460207,0.03289473684210531
71,609.4562647754137,0.03289473684210531
72,612.2537431048067,0.03289473684210531
73,612.2537431048067,0.03947368421052633
74,615.0512214342002,0.03947368421052633
75,617.8486997635932,0.03947368421052633
76,620.6461780929867,0.046052631578947345
77,620.6461780929867,0.03947368421052633
78,623.4436564223797,0.046052631578947345
79,626.2411347517732,0.052631578947368474
80,626.2411347517732,0.046052631578947345
81,629.0386130811662,0.052631578947368474
82,631.8360914105597,0.05921052631578949
83,634.6335697399527,0.05921052631578949
84,634.6335697399527,0.06578947368421051
85,637.4310480693462,0.07236842105263153
86,637.4310480693462,0.06578947368421051
87,640.2285263987392,0.07236842105263153
88,643.0260047281322,0.07236842105263153
89,645.8234830575257,0.07236842105263153
90,648.6209613869187,0.07236842105263153
91,648.6209613869187,0.07894736842105265
92,651.4184397163122,0.07894736842105265
93,654.2159180457052,0.07894736842105265
94,657.0133963750986,0.07894736842105265
95,659.8108747044917,0.07894736842105265
96,662.6083530338851,0.07894736842105265
97,665.4058313632781,0.07894736842105265
98,668.2033096926716,0.07894736842105265
99,671.0007880220646,0.07894736842105265
100,673.7982663514576,0.07894736842105265
101,676.5957446808511,0.07894736842105265
102,679.3932230102441,0.07894736842105265
103,682.1907013396376,0.07894736842105265
104,684.9881796690306,0.07894736842105265
105,687.7856579984241,0.07894736842105265
106,690.5831363278171,0.07894736842105265
107,690.5831363278171,0.07236842105263153
108,693.3806146572106,0.06578947368421051
109,693.3806146572106,0.07236842105263153
110,696.1780929866036,0.06578947368421051
111,696.1780929866036,0.05921052631578949
112,698.9755713159971,0.052631578947368474
113,698.9755713159971,0.05921052631578949
114,701.7730496453901,0.052631578947368474
115,704.5705279747831,0.052631578947368474
116,707.3680063041766,0.052631578947368474
117,707.3680063041766,0.046052631578947345
118,710.1654846335696,0.046052631578947345
119,712.962962962963,0.046052631578947345
120,712.962962962963,0.052631578947368474
121,715.7604412923561,0.052631578947368474
122,715.7604412923561,0.05921052631578949
123,718.5579196217495,0.07894736842105265
124,718.5579196217495,0.06578947368421051
125,718.5579196217495,0.07236842105263153
126,718.5579196217495,0.05921052631578949
127,721.3553979511425,0.07894736842105265
128,721.3553979511425,0.09210526315789469
129,721.3553979511425,0.08552631578947367
130,721.3553979511425,0.09868421052631582
131,724.152876280536,0.09868421052631582
132,724.152876280536,0.10526315789473684
133,724.152876280536,0.11184210526315785
134,726.950354609929,0.11184210526315785
135,729.7478329393225,0.11184210526315785
136,732.5453112687155,0.10526315789473684
137,732.5453112687155,0.09868421052631582
138,732.5453112687155,0.11184210526315785
139,735.3427895981085,0.09868421052631582
140,735.3427895981085,0.09210526315789469
141,738.140267927502,0.08552631578947367
142,738.140267927502,0.09210526315789469
143,738.140267927502,0.07894736842105265
144,740.937746256895,0.07894736842105265
145,743.7352245862885,0.08552631578947367
146,743.7352245862885,0.07894736842105265
147,746.5327029156815,0.08552631578947367
148,746.5327029156815,0.09210526315789469
149,749.330181245075,0.09210526315789469
150,749.330181245075,0.09868421052631582
151,752.127659574468,0.09868421052631582
152,752.127659574468,0.10526315789473684
153,754.9251379038615,0.10526315789473684
154,757.7226162332545,0.10526315789473684
155,757.7226162332545,0.09868421052631582
156,760.520094562648,0.09868421052631582
157,763.317572892041,0.09868421052631582
158,763.317572892041,0.09210526315789469
159,766.115051221434,0.09210526315789469
160,768.9125295508275,0.09210526315789469
161,771.7100078802205,0.09210526315789469
162,774.507486209614,0.09868421052631582
163,774.507486209614,0.09210526315789469
164,777.304964539007,0.10526315789473684
165,777.304964539007,0.09868421052631582
166,780.1024428684004,0.11184210526315785
167,780.1024428684004,0.10526315789473684
168,782.8999211977934,0.11184210526315785
169,785.6973995271869,0.11842105263157898
170,785.6973995271869,0.11184210526315785
171,788.4948778565799,0.11842105263157898
172,791.2923561859734,0.125
173,791.2923561859734,0.11842105263157898
174,794.0898345153664,0.125
175,794.0898345153664,0.14473684210526316
176,794.0898345153664,0.13157894736842102
177,794.0898345153664,0.13815789473684215
178,796.8873128447594,0.14473684210526316
179,796.8873128447594,0.15131578947368418
180,799.6847911741529,0.15131578947368418
181,799.6847911741529,0.1578947368421053
182,799.6847911741529,0.16447368421052633
183,802.4822695035459,0.17105263157894735
184,802.4822695035459,0.16447368421052633
185,805.2797478329394,0.1578947368421053
186,805.2797478329394,0.16447368421052633
187,805.2797478329394,0.15131578947368418
188,805.2797478329394,0.17105263157894735
189,808.0772261623324,0.15131578947368418
190,808.0772261623324,0.13815789473684215
191,808.0772261623324,0.14473684210526316
192,810.8747044917259,0.11842105263157898
193,810.8747044917259,0.13815789473684215
194,810.8747044917259,0.11184210526315785
195,810.8747044917259,0.13157894736842102
196,810.8747044917259,0.10526315789473684
197,810.8747044917259,0.125
198,813.6721828211189,0.09868421052631582
199,813.6721828211189,0.10526315789473684
200,813.6721828211189,0.09210526315789469
201,816.4696611505124,0.08552631578947367
202,816.4696611505124,0.09210526315789469
203,816.4696611505124,0.07894736842105265
204,819.2671394799054,0.07236842105263153
205,819.2671394799054,0.06578947368421051
206,819.2671394799054,0.05921052631578949
207,819.2671394799054,0.07894736842105265
208,822.0646178092989,0.05921052631578949
209,822.0646178092989,0.052631578947368474
210,824.8620961386919,0.046052631578947345
211,824.8620961386919,0.052631578947368474
212,827.6595744680849,0.046052631578947345
213,830.4570527974784,0.052631578947368474
214,830.4570527974784,0.046052631578947345
215,833.2545311268714,0.052631578947368474
216,836.0520094562648,0.052631578947368474
217,838.8494877856579,0.05921052631578949
218,838.8494877856579,0.052631578947368474
219,841.6469661150513,0.05921052631578949
220,844.4444444444443,0.05921052631578949
221,847.2419227738378,0.05921052631578949
222,847.2419227738378,0.052631578947368474
223,850.0394011032308,0.052631578947368474
224,852.8368794326243,0.052631578947368474
225,855.6343577620173,0.052631578947368474
226,858.4318360914103,0.052631578947368474
227,861.2293144208038,0.052631578947368474
228,861.2293144208038,0.046052631578947345
229,864.0267927501968,0.046052631578947345
230,864.0267927501968,0.052631578947368474
231,866.8242710795903,0.052631578947368474
232,869.6217494089833,0.052631578947368474
233,872.4192277383768,0.052631578947368474
234,875.2167060677698,0.052631578947368474
235,878.0141843971633,0.052631578947368474
236,880.8116627265563,0.052631578947368474
237,883.6091410559497,0.052631578947368474
238,883.6091410559497,0.05921052631578949
239,886.4066193853428,0.06578947368421051
240,886.4066193853428,0.05921052631578949
241,889.2040977147362,0.06578947368421051
242,892.0015760441293,0.06578947368421051
243,894.7990543735223,0.06578947368421051
244,897.5965327029157,0.06578947368421051
245,897.5965327029157,0.05921052631578949
246,900.3940110323088,0.05921052631578949
247,903.1914893617022,0.05921052631578949
248,905.9889676910952,0.05921052631578949
249,908.7864460204887,0.05921052631578949
250,908.7864460204887,0.06578947368421051
251,911.5839243498817,0.06578947368421051
252,914.3814026792752,0.06578947368421051
253,917.1788810086682,0.05921052631578949
254,917.1788810086682,0.06578947368421051
255,919.9763593380617,0.05921052631578949
256,922.7738376674547,0.05921052631578949
257,925.5713159968477,0.05921052631578949
258,928.3687943262412,0.05921052631578949
259,931.1662726556342,0.06578947368421051
260,931.1662726556342,0.05921052631578949
261,933.9637509850277,0.06578947368421051
262,936.7612293144207,0.06578947368421051
263,936.7612293144207,0.07236842105263153
264,939.5587076438142,0.07236842105263153
265,942.3561859732072,0.07894736842105265
266,942.3561859732072,0.07236842105263153
267,945.1536643026006,0.07894736842105265
268,947.9511426319937,0.07894736842105265
269,950.7486209613871,0.07236842105263153
270,950.7486209613871,0.07894736842105265
271,953.5460992907801,0.07236842105263153
272,956.3435776201732,0.07236842105263153
273,956.3435776201732,0.06578947368421051
274,959.1410559495666,0.06578947368421051
275,961.9385342789597,0.06578947368421051
276,964.7360126083531,0.06578947368421051
277,967.5334909377461,0.06578947368421051
278,970.3309692671396,0.06578947368421051
279,973.1284475965326,0.05921052631578949
280,973.1284475965326,0.06578947368421051
281,975.9259259259261,0.05921052631578949
282,978.7234042553191,0.05921052631578949
283,981.5208825847126,0.05921052631578949
284,981.5208825847126,0.052631578947368474
285,984.3183609141056,0.052631578947368474
286,987.1158392434986,0.052631578947368474
287,989.9133175728921,0.052631578947368474
288,992.7107959022851,0.052631578947368474
289,995.5082742316786,0.052631578947368474
290,998.3057525610716,0.046052631578947345
291,998.3057525610716,0.052631578947368474
292,1001.103230890465,0.046052631578947345
293,1003.9007092198581,0.046052631578947345
294,1006.6981875492515,0.046052631578947345
295,1009.4956658786446,0.046052631578947345
296,1012.293144208038,0.046052631578947345
297,1012.293144208038,0.03947368421052633
298,1015.090622537431,0.03947368421052633
299,1017.8881008668241,0.03947368421052633
300,1020.6855791962175,0.03947368421052633
301,1023.4830575256105,0.03947368421052633
302,1026.280535855004,0.03947368421052633
303,1029.078014184397,0.03947368421052633
304,1031.8754925137905,0.03947368421052633
305,1034.6729708431835,0.03947368421052633
306,1037.470449172577,0.03947368421052633
307,1037.470449172577,0.03289473684210531
308,1040.26792750197,0.03289473684210531
309,1043.0654058313635,0.03289473684210531
310,1045.8628841607565,0.03289473684210531
311,1048.6603624901495,0.03289473684210531
312,1051.457840819543,0.03289473684210531
313,1054.255319148936,0.03289473684210531
314,1054.255319148936,0.03947368421052633
315,1057.0527974783295,0.03947368421052633
316,1059.8502758077225,0.03289473684210531
317,1059.8502758077225,0.03947368421052633
318,1062.647754137116,0.03947368421052633
319,1065.445232466509,0.03947368421052633
320,1068.2427107959024,0.03947368421052633
321,1071.0401891252955,0.03947368421052633
322,1073.837667454689,0.03947368421052633
323,1073.837667454689,0.03289473684210531
324,1076.635145784082,0.03289473684210531
325,1079.432624113475,0.03289473684210531
326,1079.432624113475,0.02631578947368418
327,1082.2301024428684,0.02631578947368418
328,1085.0275807722614,0.02631578947368418
329,1085.0275807722614,0.03289473684210531
330,1087.825059101655,0.03947368421052633
331,1087.825059101655,0.03289473684210531
332,1090.622537431048,0.052631578947368474
333,1090.622537431048,0.046052631578947345
334,1090.622537431048,0.05921052631578949
335,1090.622537431048,0.03947368421052633
336,1093.4200157604414,0.05921052631578949
337,1093.4200157604414,0.07236842105263153
338,1093.4200157604414,0.06578947368421051
339,1096.2174940898344,0.07236842105263153
340,1096.2174940898344,0.08552631578947367
341,1096.2174940898344,0.07894736842105265
342,1096.2174940898344,0.09210526315789469
343,1099.014972419228,0.09210526315789469
344,1101.812450748621,0.09210526315789469
345,1104.6099290780144,0.09210526315789469
346,1104.6099290780144,0.08552631578947367
347,1107.4074074074074,0.08552631578947367
348,1110.2048857368004,0.08552631578947367
349,1110.2048857368004,0.09210526315789469
350,1113.0023640661939,0.09210526315789469
351,1113.0023640661939,0.08552631578947367
352,1115.799842395587,0.08552631578947367
353,1115.799842395587,0.07894736842105265
354,1115.799842395587,0.07236842105263153
355,1118.5973207249804,0.06578947368421051
356,1118.5973207249804,0.07236842105263153
357,1121.3947990543734,0.046052631578947345
358,1121.3947990543734,0.05921052631578949
359,1121.3947990543734,0.06578947368421051
360,1121.3947990543734,0.052631578947368474
361,1124.1922773837669,0.046052631578947345
362,1124.1922773837669,0.03947368421052633
363,1126.9897557131599,0.03289473684210531
364,1126.9897557131599,0.03947368421052633
365,1129.7872340425533,0.03289473684210531
366,1129.7872340425533,0.02631578947368418
367,1132.5847123719464,0.02631578947368418
368,1135.3821907013398,0.02631578947368418
369,1138.1796690307328,0.03289473684210531
370,1138.1796690307328,0.02631578947368418
371,1140.9771473601263,0.03947368421052633
372,1140.9771473601263,0.03289473684210531
373,1143.7746256895193,0.03947368421052633
374,1146.5721040189123,0.046052631578947345
375,1146.5721040189123,0.03947368421052633
376,1149.3695823483058,0.046052631578947345
377,1152.1670606776988,0.046052631578947345
378,1152.1670606776988,0.03947368421052633
379,1154.9645390070923,0.03289473684210531
380,1154.9645390070923,0.03947368421052633
381,1157.7620173364853,0.03289473684210531
382,1157.7620173364853,0.02631578947368418
383,1160.5594956658788,0.02631578947368418
384,1160.5594956658788,0.019736842105263164
385,1163.3569739952718,0.019736842105263164
386,1166.1544523246653,0.019736842105263164
387,1168.9519306540583,0.019736842105263164
388,1171.7494089834518,0.019736842105263164
389,1174.5468873128448,0.019736842105263164
390,1174.5468873128448,0.02631578947368418
391,1177.3443656422378,0.03289473684210531
392,1177.3443656422378,0.02631578947368418
393,1180.1418439716313,0.03289473684210531
394,1182.9393223010243,0.03289473684210531
395,1182.9393223010243,0.03947368421052633
396,1185.7368006304177,0.03947368421052633
397,1185.7368006304177,0.046052631578947345
398,1188.5342789598108,0.052631578947368474
399,1188.5342789598108,0.05921052631578949
400,1188.5342789598108,0.046052631578947345
401,1191.3317572892042,0.06578947368421051
402,1191.3317572892042,0.05921052631578949
403,1191.3317572892042,0.07236842105263153
404,1194.1292356185972,0.08552631578947367
405,1194.1292356185972,0.07236842105263153
406,1194.1292356185972,0.07894736842105265
407,1196.9267139479907,0.08552631578947367
408,1196.9267139479907,0.09868421052631582
409,1196.9267139479907,0.09210526315789469
410,1199.7241922773837,0.09868421052631582
411,1202.5216706067772,0.10526315789473684
412,1202.5216706067772,0.09868421052631582
413,1205.3191489361702,0.10526315789473684
414,1205.3191489361702,0.09868421052631582
415,1208.1166272655632,0.09210526315789469
416,1208.1166272655632,0.09868421052631582
417,1210.9141055949567,0.09210526315789469
418,1213.7115839243497,0.09868421052631582
419,1213.7115839243497,0.09210526315789469
420,1216.5090622537432,0.10526315789473684
421,1216.5090622537432,0.09868421052631582
422,1216.5090622537432,0.11184210526315785
423,1219.3065405831362,0.125
424,1219.3065405831362,0.11842105263157898
425,1219.3065405831362,0.11184210526315785
426,1222.1040189125297,0.14473684210526316
427,1222.1040189125297,0.13157894736842102
428,1222.1040189125297,0.125
429,1222.1040189125297,0.13815789473684215
430,1222.1040189125297,0.15131578947368418
431,1222.1040189125297,0.16447368421052633
432,1222.1040189125297,0.1578947368421053
433,1224.9014972419227,0.16447368421052633
434,1224.9014972419227,0.1842105263157895
435,1224.9014972419227,0.17763157894736847
436,1224.9014972419227,0.17105263157894735
437,1227.6989755713162,0.1907894736842105
438,1227.6989755713162,0.1842105263157895
439,1227.6989755713162,0.19736842105263153
440,1227.6989755713162,0.20394736842105265
441,1227.6989755713162,0.21052631578947367
442,1230.4964539007092,0.21052631578947367
443,1230.4964539007092,0.2171052631578947
444,1233.2939322301027,0.20394736842105265
445,1233.2939322301027,0.2171052631578947
446,1233.2939322301027,0.21052631578947367
447,1236.0914105594957,0.1907894736842105
448,1236.0914105594957,0.20394736842105265
449,1236.0914105594957,0.19736842105263153
450,1238.8888888888887,0.17763157894736847
451,1238.8888888888887,0.1842105263157895
452,1238.8888888888887,0.1907894736842105
453,1241.6863672182822,0.17763157894736847
454,1241.6863672182822,0.1842105263157895
455,1244.4838455476752,0.1842105263157895
456,1244.4838455476752,0.1907894736842105
457,1247.2813238770686,0.1907894736842105
458,1247.2813238770686,0.19736842105263153
459,1250.0788022064617,0.19736842105263153
460,1252.8762805358551,0.19736842105263153
461,1255.6737588652481,0.19736842105263153
462,1258.4712371946416,0.19736842105263153
463,1258.4712371946416,0.20394736842105265
