,wavenumbers,absorbance
0,452.797478329393,0.03289473684210531
1,452.797478329393,0.02631578947368418
2,455.5949566587865,0.02631578947368418
3,458.3924349881795,0.02631578947368418
4,458.3924349881795,0.03289473684210531
5,461.189913317573,0.03289473684210531
6,463.987391646966,0.03947368421052633
7,463.987391646966,0.03289473684210531
8,466.78486997635946,0.03289473684210531
9,469.5823483057525,0.03289473684210531
10,472.37982663514595,0.03289473684210531
11,475.17730496453896,0.03289473684210531
12,477.97478329393243,0.03289473684210531
13,480.77226162332545,0.03289473684210531
14,483.56973995271846,0.03289473684210531
15,486.36721828211193,0.03289473684210531
16,489.16469661150495,0.03289473684210531
17,489.16469661150495,0.03947368421052633
18,491.9621749408984,0.03947368421052633
19,494.75965327029144,0.03947368421052633
20,497.5571315996849,0.03947368421052633
21,500.3546099290779,0.03947368421052633
22,500.3546099290779,0.046052631578947345
23,503.1520882584714,0.046052631578947345
24,505.9495665878644,0.046052631578947345
25,508.7470449172579,0.046052631578947345
26,511.5445232466509,0.046052631578947345
27,514.3420015760439,0.046052631578947345
28,517.1394799054374,0.046052631578947345
29,519.9369582348304,0.046052631578947345
30,519.9369582348304,0.03947368421052633
31,522.7344365642239,0.03947368421052633
32,525.5319148936169,0.03947368421052633
33,528.3293932230104,0.03947368421052633
34,531.1268715524034,0.03289473684210531
35,531.1268715524034,0.03947368421052633
36,533.9243498817968,0.03289473684210531
37,536.7218282111899,0.03289473684210531
38,539.5193065405833,0.03289473684210531
39,542.3167848699763,0.03289473684210531
40,545.1142631993694,0.03289473684210531
41,547.9117415287628,0.03289473684210531
42,550.7092198581558,0.03289473684210531
43,553.5066981875493,0.03289473684210531
44,556.3041765169423,0.03289473684210531
45,559.1016548463358,0.03289473684210531
46,561.8991331757288,0.03289473684210531
47,564.6966115051223,0.03289473684210531
48,567.4940898345153,0.03947368421052633
49,570.2915681639088,0.03947368421052633
50,570.2915681639088,0.03289473684210531
51,573.0890464933018,0.03947368421052633
52,573.0890464933018,0.03289473684210531
53,575.8865248226948,0.03947368421052633
54,578.6840031520883,0.03947368421052633
55,581.4814814814813,0.03947368421052633
56,581.4814814814813,0.046052631578947345
57,584.2789598108748,0.052631578947368474
58,584.2789598108748,0.046052631578947345
59,587.0764381402678,0.05921052631578949
60,587.0764381402678,0.052631578947368474
61,589.8739164696613,0.07894736842105265
62,589.8739164696613,0.08552631578947367
63,589.8739164696613,0.07236842105263153
64,589.8739164696613,0.06578947368421051
65,589.8739164696613,0.05921052631578949
66,592.6713947990543,0.10526315789473684
67,592.6713947990543,0.09210526315789469
68,592.6713947990543,0.11184210526315785
69,592.6713947990543,0.08552631578947367
70,592.6713947990543,0.09868421052631582
71,595.4688731284477,0.1578947368421053
72,595.4688731284477,0.13815789473684215
73,595.4688731284477,0.13157894736842102
74,595.4688731284477,0.14473684210526316
75,595.4688731284477,0.17763157894736847
76,595.4688731284477,0.17105263157894735
77,595.4688731284477,0.11842105263157898
78,595.4688731284477,0.16447368421052633
79,595.4688731284477,0.125
80,595.4688731284477,0.15131578947368418
81,595.4688731284477,0.11184210526315785
82,598.2663514578408,0.2171052631578947
83,598.2663514578408,0.1907894736842105
84,598.2663514578408,0.21052631578947367
85,598.2663514578408,0.20394736842105265
86,598.2663514578408,0.1842105263157895
87,598.2663514578408,0.17763157894736847
88,598.2663514578408,0.19736842105263153
89,601.0638297872342,0.22368421052631582
90,601.0638297872342,0.2171052631578947
91,601.0638297872342,0.23026315789473684
92,601.0638297872342,0.23684210526315785
93,603.8613081166272,0.21052631578947367
94,603.8613081166272,0.23026315789473684
95,603.8613081166272,0.22368421052631582
96,603.8613081166272,0.2171052631578947
97,606.6587864460207,0.1578947368421053
98,606.6587864460207,0.15131578947368418
99,606.6587864460207,0.14473684210526316
100,606.6587864460207,0.17105263157894735
101,606.6587864460207,0.16447368421052633
102,606.6587864460207,0.17763157894736847
103,606.6587864460207,0.21052631578947367
104,606.6587864460207,0.20394736842105265
105,606.6587864460207,0.1842105263157895
106,606.6587864460207,0.1907894736842105
107,606.6587864460207,0.19736842105263153
108,609.4562647754137,0.13157894736842102
109,609.4562647754137,0.13815789473684215
110,609.4562647754137,0.11842105263157898
111,609.4562647754137,0.14473684210526316
112,609.4562647754137,0.125
113,612.2537431048067,0.08552631578947367
114,612.2537431048067,0.09868421052631582
115,612.2537431048067,0.10526315789473684
116,612.2537431048067,0.11184210526315785
117,612.2537431048067,0.09210526315789469
118,612.2537431048067,0.11842105263157898
119,615.0512214342002,0.08552631578947367
120,615.0512214342002,0.07894736842105265
121,617.8486997635932,0.07894736842105265
122,620.6461780929867,0.08552631578947367
123,620.6461780929867,0.07894736842105265
124,620.6461780929867,0.09210526315789469
125,623.4436564223797,0.09868421052631582
126,623.4436564223797,0.09210526315789469
127,626.2411347517732,0.10526315789473684
128,626.2411347517732,0.09868421052631582
129,629.0386130811662,0.10526315789473684
130,631.8360914105597,0.09868421052631582
131,631.8360914105597,0.10526315789473684
132,631.8360914105597,0.09210526315789469
133,634.6335697399527,0.09210526315789469
134,634.6335697399527,0.08552631578947367
135,637.4310480693462,0.08552631578947367
136,637.4310480693462,0.07894736842105265
137,640.2285263987392,0.07894736842105265
138,643.0260047281322,0.07236842105263153
139,643.0260047281322,0.07894736842105265
140,645.8234830575257,0.07236842105263153
141,648.6209613869187,0.07236842105263153
142,651.4184397163122,0.07236842105263153
143,654.2159180457052,0.07236842105263153
144,654.2159180457052,0.06578947368421051
145,657.0133963750986,0.06578947368421051
146,657.0133963750986,0.05921052631578949
147,659.8108747044917,0.052631578947368474
148,659.8108747044917,0.05921052631578949
149,662.6083530338851,0.052631578947368474
150,665.4058313632781,0.052631578947368474
151,665.4058313632781,0.03947368421052633
152,665.4058313632781,0.046052631578947345
153,668.2033096926716,0.03289473684210531
154,668.2033096926716,0.03947368421052633
155,671.0007880220646,0.03289473684210531
156,673.7982663514576,0.03289473684210531
157,673.7982663514576,0.02631578947368418
158,676.5957446808511,0.02631578947368418
159,679.3932230102441,0.02631578947368418
160,682.1907013396376,0.02631578947368418
161,684.9881796690306,0.02631578947368418
162,687.7856579984241,0.02631578947368418
163,687.7856579984241,0.019736842105263164
164,690.5831363278171,0.019736842105263164
165,693.3806146572106,0.019736842105263164
166,696.1780929866036,0.019736842105263164
167,698.9755713159971,0.019736842105263164
168,701.7730496453901,0.019736842105263164
169,704.5705279747831,0.019736842105263164
170,707.3680063041766,0.019736842105263164
171,710.1654846335696,0.019736842105263164
172,712.962962962963,0.019736842105263164
173,715.7604412923561,0.013157894736842146
174,715.7604412923561,0.019736842105263164
175,718.5579196217495,0.019736842105263164
176,718.5579196217495,0.013157894736842146
177,721.3553979511425,0.019736842105263164
178,724.152876280536,0.019736842105263164
179,726.950354609929,0.019736842105263164
180,729.7478329393225,0.019736842105263164
181,732.5453112687155,0.019736842105263164
182,735.3427895981085,0.019736842105263164
183,738.140267927502,0.019736842105263164
184,740.937746256895,0.019736842105263164
185,743.7352245862885,0.019736842105263164
186,746.5327029156815,0.019736842105263164
187,749.330181245075,0.02631578947368418
188,749.330181245075,0.019736842105263164
189,752.127659574468,0.02631578947368418
190,754.9251379038615,0.02631578947368418
191,757.7226162332545,0.02631578947368418
192,760.520094562648,0.02631578947368418
193,763.317572892041,0.019736842105263164
194,763.317572892041,0.02631578947368418
195,766.115051221434,0.019736842105263164
196,768.9125295508275,0.019736842105263164
197,771.7100078802205,0.019736842105263164
198,774.507486209614,0.02631578947368418
199,774.507486209614,0.019736842105263164
200,777.304964539007,0.02631578947368418
201,780.1024428684004,0.02631578947368418
202,780.1024428684004,0.03947368421052633
203,780.1024428684004,0.03289473684210531
204,782.8999211977934,0.03947368421052633
205,782.8999211977934,0.046052631578947345
206,785.6973995271869,0.05921052631578949
207,785.6973995271869,0.052631578947368474
208,785.6973995271869,0.046052631578947345
209,788.4948778565799,0.07236842105263153
210,788.4948778565799,0.07894736842105265
211,788.4948778565799,0.05921052631578949
212,788.4948778565799,0.06578947368421051
213,791.2923561859734,0.08552631578947367
214,791.2923561859734,0.07894736842105265
215,794.0898345153664,0.08552631578947367
216,794.0898345153664,0.07894736842105265
217,796.8873128447594,0.07894736842105265
218,796.8873128447594,0.07236842105263153
219,799.6847911741529,0.06578947368421051
220,799.6847911741529,0.07236842105263153
221,802.4822695035459,0.06578947368421051
222,805.2797478329394,0.06578947368421051
223,805.2797478329394,0.05921052631578949
224,808.0772261623324,0.05921052631578949
225,808.0772261623324,0.052631578947368474
226,810.8747044917259,0.052631578947368474
227,813.6721828211189,0.052631578947368474
228,813.6721828211189,0.046052631578947345
229,816.4696611505124,0.046052631578947345
230,819.2671394799054,0.046052631578947345
231,822.0646178092989,0.046052631578947345
232,824.8620961386919,0.046052631578947345
233,827.6595744680849,0.046052631578947345
234,830.4570527974784,0.052631578947368474
235,830.4570527974784,0.046052631578947345
236,833.2545311268714,0.052631578947368474
237,836.0520094562648,0.052631578947368474
238,838.8494877856579,0.052631578947368474
239,841.6469661150513,0.052631578947368474
240,844.4444444444443,0.046052631578947345
241,844.4444444444443,0.052631578947368474
242,847.2419227738378,0.046052631578947345
243,850.0394011032308,0.046052631578947345
244,852.8368794326243,0.046052631578947345
245,855.6343577620173,0.046052631578947345
246,858.4318360914103,0.046052631578947345
247,861.2293144208038,0.046052631578947345
248,864.0267927501968,0.046052631578947345
249,866.8242710795903,0.046052631578947345
250,869.6217494089833,0.046052631578947345
251,872.4192277383768,0.052631578947368474
252,872.4192277383768,0.046052631578947345
253,875.2167060677698,0.052631578947368474
254,878.0141843971633,0.052631578947368474
255,880.8116627265563,0.052631578947368474
256,880.8116627265563,0.05921052631578949
257,883.6091410559497,0.05921052631578949
258,886.4066193853428,0.05921052631578949
259,889.2040977147362,0.05921052631578949
260,892.0015760441293,0.06578947368421051
261,892.0015760441293,0.05921052631578949
262,894.7990543735223,0.06578947368421051
263,897.5965327029157,0.06578947368421051
264,897.5965327029157,0.07236842105263153
265,900.3940110323088,0.07894736842105265
266,900.3940110323088,0.07236842105263153
267,903.1914893617022,0.07894736842105265
268,905.9889676910952,0.08552631578947367
269,905.9889676910952,0.09210526315789469
270,905.9889676910952,0.07894736842105265
271,908.7864460204887,0.09210526315789469
272,911.5839243498817,0.09868421052631582
273,911.5839243498817,0.09210526315789469
274,911.5839243498817,0.10526315789473684
275,914.3814026792752,0.10526315789473684
276,914.3814026792752,0.11184210526315785
277,917.1788810086682,0.11184210526315785
278,917.1788810086682,0.11842105263157898
279,917.1788810086682,0.125
280,919.9763593380617,0.13157894736842102
281,919.9763593380617,0.13815789473684215
282,919.9763593380617,0.125
283,922.7738376674547,0.13815789473684215
284,922.7738376674547,0.15131578947368418
285,922.7738376674547,0.1578947368421053
286,922.7738376674547,0.16447368421052633
287,922.7738376674547,0.14473684210526316
288,925.5713159968477,0.16447368421052633
289,925.5713159968477,0.17105263157894735
290,925.5713159968477,0.17763157894736847
291,928.3687943262412,0.17763157894736847
292,928.3687943262412,0.19736842105263153
293,928.3687943262412,0.1907894736842105
294,928.3687943262412,0.1842105263157895
295,931.1662726556342,0.22368421052631582
296,931.1662726556342,0.2171052631578947
297,931.1662726556342,0.23026315789473684
298,931.1662726556342,0.21052631578947367
299,931.1662726556342,0.20394736842105265
300,931.1662726556342,0.19736842105263153
301,931.1662726556342,0.23684210526315785
302,933.9637509850277,0.23684210526315785
303,933.9637509850277,0.24342105263157898
304,933.9637509850277,0.256578947368421
305,933.9637509850277,0.25
306,936.7612293144207,0.29605263157894735
307,936.7612293144207,0.2894736842105263
308,936.7612293144207,0.2828947368421053
309,936.7612293144207,0.2763157894736842
310,936.7612293144207,0.3026315789473685
311,936.7612293144207,0.256578947368421
312,936.7612293144207,0.26973684210526316
313,936.7612293144207,0.26315789473684215
314,939.5587076438142,0.3026315789473685
315,939.5587076438142,0.3157894736842105
316,939.5587076438142,0.3223684210526315
317,939.5587076438142,0.3092105263157895
318,942.3561859732072,0.32894736842105265
319,942.3561859732072,0.3355263157894737
320,942.3561859732072,0.3223684210526315
321,945.1536643026006,0.3092105263157895
322,945.1536643026006,0.3157894736842105
323,945.1536643026006,0.32894736842105265
324,945.1536643026006,0.3223684210526315
325,947.9511426319937,0.2894736842105263
326,947.9511426319937,0.29605263157894735
327,947.9511426319937,0.26315789473684215
328,947.9511426319937,0.3026315789473685
329,947.9511426319937,0.3092105263157895
330,947.9511426319937,0.256578947368421
331,947.9511426319937,0.26973684210526316
332,947.9511426319937,0.2828947368421053
333,947.9511426319937,0.25
334,947.9511426319937,0.2763157894736842
335,950.7486209613871,0.23026315789473684
336,950.7486209613871,0.24342105263157898
337,950.7486209613871,0.25
338,950.7486209613871,0.22368421052631582
339,950.7486209613871,0.23684210526315785
340,953.5460992907801,0.20394736842105265
341,953.5460992907801,0.21052631578947367
342,953.5460992907801,0.22368421052631582
343,953.5460992907801,0.2171052631578947
344,953.5460992907801,0.19736842105263153
345,953.5460992907801,0.1907894736842105
346,956.3435776201732,0.1842105263157895
347,956.3435776201732,0.1907894736842105
348,956.3435776201732,0.17763157894736847
349,959.1410559495666,0.17105263157894735
350,959.1410559495666,0.17763157894736847
351,961.9385342789597,0.1578947368421053
352,961.9385342789597,0.17105263157894735
353,961.9385342789597,0.16447368421052633
354,961.9385342789597,0.15131578947368418
355,964.7360126083531,0.15131578947368418
356,964.7360126083531,0.14473684210526316
357,967.5334909377461,0.14473684210526316
358,967.5334909377461,0.13815789473684215
359,970.3309692671396,0.13157894736842102
360,970.3309692671396,0.13815789473684215
361,973.1284475965326,0.13157894736842102
362,975.9259259259261,0.13157894736842102
363,978.7234042553191,0.13815789473684215
364,978.7234042553191,0.13157894736842102
365,981.5208825847126,0.13815789473684215
366,981.5208825847126,0.14473684210526316
367,984.3183609141056,0.14473684210526316
368,984.3183609141056,0.15131578947368418
369,987.1158392434986,0.1578947368421053
370,987.1158392434986,0.15131578947368418
371,989.9133175728921,0.16447368421052633
372,989.9133175728921,0.1578947368421053
373,989.9133175728921,0.17105263157894735
374,992.7107959022851,0.1907894736842105
375,992.7107959022851,0.17105263157894735
376,992.7107959022851,0.17763157894736847
377,992.7107959022851,0.1842105263157895
378,995.5082742316786,0.1907894736842105
379,995.5082742316786,0.19736842105263153
380,995.5082742316786,0.20394736842105265
381,998.3057525610716,0.24342105263157898
382,998.3057525610716,0.20394736842105265
383,998.3057525610716,0.22368421052631582
384,998.3057525610716,0.2171052631578947
385,998.3057525610716,0.21052631578947367
386,998.3057525610716,0.23684210526315785
387,998.3057525610716,0.23026315789473684
388,1001.103230890465,0.25
389,1001.103230890465,0.24342105263157898
390,1001.103230890465,0.26973684210526316
391,1001.103230890465,0.256578947368421
392,1001.103230890465,0.26315789473684215
393,1003.9007092198581,0.36184210526315785
394,1003.9007092198581,0.2894736842105263
395,1003.9007092198581,0.3092105263157895
396,1003.9007092198581,0.3223684210526315
397,1003.9007092198581,0.32894736842105265
398,1003.9007092198581,0.2763157894736842
399,1003.9007092198581,0.3355263157894737
400,1003.9007092198581,0.3486842105263158
401,1003.9007092198581,0.3421052631578947
402,1003.9007092198581,0.2828947368421053
403,1003.9007092198581,0.35526315789473684
404,1003.9007092198581,0.26973684210526316
405,1003.9007092198581,0.3026315789473685
406,1003.9007092198581,0.3157894736842105
407,1003.9007092198581,0.29605263157894735
408,1006.6981875492515,0.38815789473684215
409,1006.6981875492515,0.368421052631579
410,1006.6981875492515,0.4013157894736842
411,1006.6981875492515,0.42105263157894735
412,1006.6981875492515,0.4144736842105263
413,1006.6981875492515,0.381578947368421
414,1006.6981875492515,0.4078947368421053
415,1006.6981875492515,0.375
416,1006.6981875492515,0.36184210526315785
417,1006.6981875492515,0.39473684210526316
418,1009.4956658786446,0.4605263157894737
419,1009.4956658786446,0.5263157894736843
420,1009.4956658786446,0.5657894736842105
421,1009.4956658786446,0.493421052631579
422,1009.4956658786446,0.4407894736842105
423,1009.4956658786446,0.5723684210526316
424,1009.4956658786446,0.5328947368421053
425,1009.4956658786446,0.5592105263157895
426,1009.4956658786446,0.513157894736842
427,1009.4956658786446,0.5394736842105263
428,1009.4956658786446,0.4473684210526315
429,1009.4956658786446,0.5
430,1009.4956658786446,0.4736842105263158
431,1009.4956658786446,0.5197368421052632
432,1009.4956658786446,0.48684210526315785
433,1009.4956658786446,0.48026315789473684
434,1009.4956658786446,0.506578947368421
435,1009.4956658786446,0.45394736842105265
436,1009.4956658786446,0.4671052631578947
437,1009.4956658786446,0.5460526315789473
438,1009.4956658786446,0.4342105263157895
439,1009.4956658786446,0.4276315789473685
440,1009.4956658786446,0.42105263157894735
441,1009.4956658786446,0.5526315789473684
442,1012.293144208038,0.5986842105263157
443,1012.293144208038,0.611842105263158
444,1012.293144208038,0.5921052631578947
445,1012.293144208038,0.5855263157894737
446,1012.293144208038,0.6513157894736843
447,1012.293144208038,0.6447368421052632
448,1012.293144208038,0.5789473684210527
449,1012.293144208038,0.6052631578947368
450,1012.293144208038,0.638157894736842
451,1012.293144208038,0.631578947368421
452,1012.293144208038,0.625
453,1012.293144208038,0.5723684210526316
454,1012.293144208038,0.618421052631579
455,1015.090622537431,0.6842105263157895
456,1015.090622537431,0.6513157894736843
457,1015.090622537431,0.6578947368421053
458,1015.090622537431,0.6644736842105263
459,1015.090622537431,0.6710526315789473
460,1015.090622537431,0.6776315789473684
461,1015.090622537431,0.6907894736842105
462,1015.090622537431,0.7039473684210527
463,1015.090622537431,0.6973684210526316
464,1017.8881008668241,0.7236842105263157
465,1017.8881008668241,0.7302631578947368
466,1017.8881008668241,0.7039473684210527
467,1017.8881008668241,0.736842105263158
468,1017.8881008668241,0.7105263157894737
469,1017.8881008668241,0.7171052631578947
