,wavenumbers,absorbance
0,452.797478329393,0.07894736842105265
1,455.5949566587865,0.07894736842105265
2,458.3924349881795,0.07894736842105265
3,461.189913317573,0.07894736842105265
4,463.987391646966,0.07894736842105265
5,466.78486997635946,0.07894736842105265
6,469.5823483057525,0.07894736842105265
7,472.37982663514595,0.07894736842105265
8,475.17730496453896,0.07894736842105265
9,475.17730496453896,0.08552631578947367
10,477.97478329393243,0.08552631578947367
11,480.77226162332545,0.08552631578947367
12,483.56973995271846,0.08552631578947367
13,486.36721828211193,0.08552631578947367
14,489.16469661150495,0.08552631578947367
15,491.9621749408984,0.08552631578947367
16,494.75965327029144,0.08552631578947367
17,497.5571315996849,0.08552631578947367
18,500.3546099290779,0.08552631578947367
19,503.1520882584714,0.08552631578947367
20,505.9495665878644,0.08552631578947367
21,508.7470449172579,0.08552631578947367
22,511.5445232466509,0.08552631578947367
23,514.3420015760439,0.08552631578947367
24,514.3420015760439,0.07894736842105265
25,517.1394799054374,0.07894736842105265
26,519.9369582348304,0.07894736842105265
27,522.7344365642239,0.07236842105263153
28,522.7344365642239,0.07894736842105265
29,525.5319148936169,0.07236842105263153
30,528.3293932230104,0.07236842105263153
31,531.1268715524034,0.07236842105263153
32,533.9243498817968,0.07236842105263153
33,536.7218282111899,0.07236842105263153
34,536.7218282111899,0.06578947368421051
35,539.5193065405833,0.06578947368421051
36,542.3167848699763,0.06578947368421051
37,545.1142631993694,0.06578947368421051
38,547.9117415287628,0.06578947368421051
39,550.7092198581558,0.06578947368421051
40,553.5066981875493,0.05921052631578949
41,553.5066981875493,0.06578947368421051
42,556.3041765169423,0.05921052631578949
43,559.1016548463358,0.05921052631578949
44,561.8991331757288,0.052631578947368474
45,561.8991331757288,0.05921052631578949
46,564.6966115051223,0.052631578947368474
47,567.4940898345153,0.052631578947368474
48,570.2915681639088,0.052631578947368474
49,573.0890464933018,0.052631578947368474
50,573.0890464933018,0.046052631578947345
51,575.8865248226948,0.046052631578947345
52,578.6840031520883,0.046052631578947345
53,581.4814814814813,0.046052631578947345
54,584.2789598108748,0.046052631578947345
55,587.0764381402678,0.046052631578947345
56,589.8739164696613,0.046052631578947345
57,592.6713947990543,0.046052631578947345
58,595.4688731284477,0.03947368421052633
59,595.4688731284477,0.046052631578947345
60,598.2663514578408,0.03947368421052633
61,601.0638297872342,0.03947368421052633
62,603.8613081166272,0.03947368421052633
63,606.6587864460207,0.03947368421052633
64,609.4562647754137,0.03289473684210531
65,609.4562647754137,0.03947368421052633
66,612.2537431048067,0.03289473684210531
67,615.0512214342002,0.03289473684210531
68,617.8486997635932,0.03289473684210531
69,620.6461780929867,0.03289473684210531
70,623.4436564223797,0.03289473684210531
71,626.2411347517732,0.03289473684210531
72,629.0386130811662,0.03289473684210531
73,631.8360914105597,0.03289473684210531
74,631.8360914105597,0.02631578947368418
75,634.6335697399527,0.02631578947368418
76,637.4310480693462,0.02631578947368418
77,640.2285263987392,0.02631578947368418
78,643.0260047281322,0.02631578947368418
79,645.8234830575257,0.02631578947368418
80,648.6209613869187,0.02631578947368418
81,651.4184397163122,0.02631578947368418
82,654.2159180457052,0.02631578947368418
83,657.0133963750986,0.02631578947368418
84,659.8108747044917,0.02631578947368418
85,662.6083530338851,0.03289473684210531
86,662.6083530338851,0.02631578947368418
87,665.4058313632781,0.02631578947368418
88,665.4058313632781,0.03289473684210531
89,668.2033096926716,0.02631578947368418
90,671.0007880220646,0.02631578947368418
91,673.7982663514576,0.02631578947368418
92,676.5957446808511,0.02631578947368418
93,676.5957446808511,0.03289473684210531
94,679.3932230102441,0.03289473684210531
95,682.1907013396376,0.03289473684210531
96,684.9881796690306,0.03947368421052633
97,684.9881796690306,0.03289473684210531
98,687.7856579984241,0.052631578947368474
99,687.7856579984241,0.046052631578947345
100,687.7856579984241,0.03947368421052633
101,690.5831363278171,0.05921052631578949
102,690.5831363278171,0.07894736842105265
103,690.5831363278171,0.06578947368421051
104,690.5831363278171,0.07236842105263153
105,690.5831363278171,0.052631578947368474
106,693.3806146572106,0.1842105263157895
107,693.3806146572106,0.07894736842105265
108,693.3806146572106,0.09868421052631582
109,693.3806146572106,0.13157894736842102
110,693.3806146572106,0.1907894736842105
111,693.3806146572106,0.17763157894736847
112,693.3806146572106,0.1578947368421053
113,693.3806146572106,0.125
114,693.3806146572106,0.11184210526315785
115,693.3806146572106,0.16447368421052633
116,693.3806146572106,0.10526315789473684
117,693.3806146572106,0.17105263157894735
118,693.3806146572106,0.14473684210526316
119,693.3806146572106,0.13815789473684215
120,693.3806146572106,0.15131578947368418
121,693.3806146572106,0.09210526315789469
122,693.3806146572106,0.19736842105263153
123,693.3806146572106,0.08552631578947367
124,693.3806146572106,0.11842105263157898
125,696.1780929866036,0.24342105263157898
126,696.1780929866036,0.2171052631578947
127,696.1780929866036,0.23026315789473684
128,696.1780929866036,0.256578947368421
129,696.1780929866036,0.21052631578947367
130,696.1780929866036,0.19736842105263153
131,696.1780929866036,0.20394736842105265
132,696.1780929866036,0.25
133,696.1780929866036,0.22368421052631582
134,696.1780929866036,0.26315789473684215
135,696.1780929866036,0.23684210526315785
136,698.9755713159971,0.26315789473684215
137,698.9755713159971,0.26973684210526316
138,698.9755713159971,0.256578947368421
139,698.9755713159971,0.2763157894736842
140,701.7730496453901,0.21052631578947367
141,701.7730496453901,0.20394736842105265
142,701.7730496453901,0.2171052631578947
143,701.7730496453901,0.24342105263157898
144,701.7730496453901,0.23026315789473684
145,701.7730496453901,0.256578947368421
146,701.7730496453901,0.25
147,701.7730496453901,0.23684210526315785
148,701.7730496453901,0.22368421052631582
149,704.5705279747831,0.19736842105263153
150,704.5705279747831,0.16447368421052633
151,704.5705279747831,0.17763157894736847
152,704.5705279747831,0.15131578947368418
153,704.5705279747831,0.1907894736842105
154,704.5705279747831,0.1842105263157895
155,704.5705279747831,0.1578947368421053
156,704.5705279747831,0.20394736842105265
157,704.5705279747831,0.17105263157894735
158,707.3680063041766,0.15131578947368418
159,707.3680063041766,0.13157894736842102
160,707.3680063041766,0.09868421052631582
161,707.3680063041766,0.11842105263157898
162,707.3680063041766,0.07236842105263153
163,707.3680063041766,0.125
164,707.3680063041766,0.08552631578947367
165,707.3680063041766,0.11184210526315785
166,707.3680063041766,0.10526315789473684
167,707.3680063041766,0.14473684210526316
168,707.3680063041766,0.13815789473684215
169,707.3680063041766,0.07894736842105265
170,707.3680063041766,0.09210526315789469
171,710.1654846335696,0.06578947368421051
172,710.1654846335696,0.05921052631578949
173,710.1654846335696,0.07236842105263153
174,710.1654846335696,0.052631578947368474
175,712.962962962963,0.03947368421052633
176,712.962962962963,0.046052631578947345
177,712.962962962963,0.052631578947368474
178,715.7604412923561,0.03947368421052633
179,715.7604412923561,0.03289473684210531
180,718.5579196217495,0.03289473684210531
181,721.3553979511425,0.03289473684210531
182,724.152876280536,0.03289473684210531
183,726.950354609929,0.03947368421052633
184,726.950354609929,0.03289473684210531
185,729.7478329393225,0.046052631578947345
186,729.7478329393225,0.03947368421052633
187,732.5453112687155,0.05921052631578949
188,732.5453112687155,0.052631578947368474
189,732.5453112687155,0.046052631578947345
190,735.3427895981085,0.06578947368421051
191,735.3427895981085,0.05921052631578949
192,738.140267927502,0.07236842105263153
193,738.140267927502,0.06578947368421051
194,740.937746256895,0.07236842105263153
195,743.7352245862885,0.08552631578947367
196,743.7352245862885,0.09210526315789469
197,743.7352245862885,0.07236842105263153
198,743.7352245862885,0.07894736842105265
199,746.5327029156815,0.09868421052631582
200,746.5327029156815,0.09210526315789469
201,746.5327029156815,0.10526315789473684
202,749.330181245075,0.13157894736842102
203,749.330181245075,0.11184210526315785
204,749.330181245075,0.125
205,749.330181245075,0.13815789473684215
206,749.330181245075,0.11842105263157898
207,749.330181245075,0.10526315789473684
208,752.127659574468,0.15131578947368418
209,752.127659574468,0.13815789473684215
210,752.127659574468,0.1578947368421053
211,752.127659574468,0.14473684210526316
212,754.9251379038615,0.1842105263157895
213,754.9251379038615,0.1578947368421053
214,754.9251379038615,0.16447368421052633
215,754.9251379038615,0.17105263157894735
216,754.9251379038615,0.17763157894736847
217,757.7226162332545,0.1842105263157895
218,760.520094562648,0.17763157894736847
219,760.520094562648,0.1842105263157895
220,763.317572892041,0.16447368421052633
221,763.317572892041,0.17763157894736847
222,763.317572892041,0.1578947368421053
223,763.317572892041,0.14473684210526316
224,763.317572892041,0.15131578947368418
225,763.317572892041,0.17105263157894735
226,766.115051221434,0.13157894736842102
227,766.115051221434,0.125
228,766.115051221434,0.13815789473684215
229,768.9125295508275,0.125
230,768.9125295508275,0.11184210526315785
231,768.9125295508275,0.11842105263157898
232,768.9125295508275,0.09868421052631582
233,768.9125295508275,0.10526315789473684
234,771.7100078802205,0.09210526315789469
235,771.7100078802205,0.08552631578947367
236,771.7100078802205,0.09868421052631582
237,774.507486209614,0.07894736842105265
238,774.507486209614,0.08552631578947367
239,777.304964539007,0.07236842105263153
240,777.304964539007,0.07894736842105265
241,780.1024428684004,0.05921052631578949
242,780.1024428684004,0.06578947368421051
243,780.1024428684004,0.07236842105263153
244,782.8999211977934,0.05921052631578949
245,782.8999211977934,0.052631578947368474
246,785.6973995271869,0.052631578947368474
247,785.6973995271869,0.046052631578947345
248,788.4948778565799,0.046052631578947345
249,791.2923561859734,0.046052631578947345
250,794.0898345153664,0.046052631578947345
251,796.8873128447594,0.046052631578947345
252,796.8873128447594,0.052631578947368474
253,799.6847911741529,0.052631578947368474
254,802.4822695035459,0.052631578947368474
255,802.4822695035459,0.05921052631578949
256,805.2797478329394,0.05921052631578949
257,808.0772261623324,0.05921052631578949
258,810.8747044917259,0.05921052631578949
259,810.8747044917259,0.06578947368421051
260,813.6721828211189,0.06578947368421051
261,816.4696611505124,0.06578947368421051
262,819.2671394799054,0.06578947368421051
263,819.2671394799054,0.05921052631578949
264,822.0646178092989,0.05921052631578949
265,824.8620961386919,0.05921052631578949
266,827.6595744680849,0.06578947368421051
267,827.6595744680849,0.05921052631578949
268,830.4570527974784,0.07894736842105265
269,830.4570527974784,0.06578947368421051
270,830.4570527974784,0.07236842105263153
271,833.2545311268714,0.09210526315789469
272,833.2545311268714,0.08552631578947367
273,833.2545311268714,0.07894736842105265
274,836.0520094562648,0.10526315789473684
275,836.0520094562648,0.09210526315789469
276,836.0520094562648,0.09868421052631582
277,838.8494877856579,0.10526315789473684
278,841.6469661150513,0.10526315789473684
279,844.4444444444443,0.10526315789473684
280,844.4444444444443,0.09868421052631582
281,847.2419227738378,0.09868421052631582
282,847.2419227738378,0.09210526315789469
283,850.0394011032308,0.08552631578947367
284,850.0394011032308,0.09210526315789469
285,850.0394011032308,0.07894736842105265
286,852.8368794326243,0.07236842105263153
287,852.8368794326243,0.07894736842105265
288,855.6343577620173,0.07236842105263153
289,858.4318360914103,0.06578947368421051
290,858.4318360914103,0.07236842105263153
291,861.2293144208038,0.06578947368421051
292,864.0267927501968,0.06578947368421051
293,866.8242710795903,0.06578947368421051
294,869.6217494089833,0.06578947368421051
295,872.4192277383768,0.06578947368421051
296,875.2167060677698,0.06578947368421051
297,875.2167060677698,0.07236842105263153
298,878.0141843971633,0.07236842105263153
299,880.8116627265563,0.07894736842105265
300,880.8116627265563,0.07236842105263153
301,883.6091410559497,0.07894736842105265
302,886.4066193853428,0.08552631578947367
303,886.4066193853428,0.07894736842105265
304,889.2040977147362,0.08552631578947367
305,892.0015760441293,0.09210526315789469
306,892.0015760441293,0.08552631578947367
307,894.7990543735223,0.09210526315789469
308,897.5965327029157,0.09210526315789469
309,900.3940110323088,0.09868421052631582
310,900.3940110323088,0.09210526315789469
311,903.1914893617022,0.09868421052631582
312,905.9889676910952,0.09210526315789469
313,905.9889676910952,0.09868421052631582
314,908.7864460204887,0.09210526315789469
315,911.5839243498817,0.09210526315789469
316,911.5839243498817,0.08552631578947367
317,914.3814026792752,0.08552631578947367
318,917.1788810086682,0.08552631578947367
319,919.9763593380617,0.08552631578947367
320,922.7738376674547,0.08552631578947367
321,925.5713159968477,0.08552631578947367
322,928.3687943262412,0.08552631578947367
323,928.3687943262412,0.09210526315789469
324,931.1662726556342,0.09868421052631582
325,931.1662726556342,0.09210526315789469
326,933.9637509850277,0.09868421052631582
327,936.7612293144207,0.09868421052631582
328,936.7612293144207,0.10526315789473684
329,939.5587076438142,0.10526315789473684
330,942.3561859732072,0.10526315789473684
331,942.3561859732072,0.11184210526315785
332,945.1536643026006,0.11184210526315785
333,947.9511426319937,0.11184210526315785
334,950.7486209613871,0.11184210526315785
335,953.5460992907801,0.11842105263157898
336,953.5460992907801,0.11184210526315785
337,956.3435776201732,0.11842105263157898
338,959.1410559495666,0.11842105263157898
339,959.1410559495666,0.125
340,961.9385342789597,0.125
341,964.7360126083531,0.125
342,967.5334909377461,0.125
343,970.3309692671396,0.125
344,970.3309692671396,0.13157894736842102
345,973.1284475965326,0.13815789473684215
346,973.1284475965326,0.13157894736842102
347,973.1284475965326,0.14473684210526316
348,975.9259259259261,0.15131578947368418
349,975.9259259259261,0.14473684210526316
350,978.7234042553191,0.1578947368421053
351,978.7234042553191,0.15131578947368418
352,978.7234042553191,0.16447368421052633
353,981.5208825847126,0.17105263157894735
354,981.5208825847126,0.16447368421052633
355,984.3183609141056,0.17105263157894735
356,984.3183609141056,0.17763157894736847
357,987.1158392434986,0.17763157894736847
358,987.1158392434986,0.17105263157894735
359,989.9133175728921,0.17105263157894735
360,989.9133175728921,0.16447368421052633
361,992.7107959022851,0.1578947368421053
362,992.7107959022851,0.16447368421052633
363,992.7107959022851,0.15131578947368418
364,995.5082742316786,0.15131578947368418
365,995.5082742316786,0.14473684210526316
366,995.5082742316786,0.13815789473684215
367,998.3057525610716,0.125
368,998.3057525610716,0.13157894736842102
369,998.3057525610716,0.13815789473684215
370,1001.103230890465,0.125
371,1003.9007092198581,0.125
372,1006.6981875492515,0.125
373,1009.4956658786446,0.125
374,1009.4956658786446,0.13157894736842102
375,1012.293144208038,0.13157894736842102
376,1012.293144208038,0.13815789473684215
377,1015.090622537431,0.13815789473684215
378,1017.8881008668241,0.13815789473684215
379,1017.8881008668241,0.14473684210526316
380,1020.6855791962175,0.15131578947368418
381,1020.6855791962175,0.14473684210526316
382,1023.4830575256105,0.15131578947368418
383,1023.4830575256105,0.1578947368421053
384,1026.280535855004,0.1578947368421053
385,1029.078014184397,0.1578947368421053
386,1029.078014184397,0.15131578947368418
387,1031.8754925137905,0.15131578947368418
388,1031.8754925137905,0.14473684210526316
389,1034.6729708431835,0.14473684210526316
390,1037.470449172577,0.14473684210526316
391,1040.26792750197,0.14473684210526316
392,1043.0654058313635,0.14473684210526316
393,1045.8628841607565,0.14473684210526316
394,1048.6603624901495,0.14473684210526316
395,1048.6603624901495,0.1578947368421053
396,1048.6603624901495,0.15131578947368418
397,1051.457840819543,0.1578947368421053
398,1051.457840819543,0.16447368421052633
399,1054.255319148936,0.17105263157894735
400,1054.255319148936,0.17763157894736847
401,1054.255319148936,0.1842105263157895
402,1054.255319148936,0.16447368421052633
403,1057.0527974783295,0.1907894736842105
404,1057.0527974783295,0.1842105263157895
405,1059.8502758077225,0.19736842105263153
406,1059.8502758077225,0.21052631578947367
407,1059.8502758077225,0.20394736842105265
408,1059.8502758077225,0.1907894736842105
409,1062.647754137116,0.21052631578947367
410,1062.647754137116,0.2171052631578947
411,1065.445232466509,0.2171052631578947
412,1065.445232466509,0.22368421052631582
413,1065.445232466509,0.23026315789473684
414,1065.445232466509,0.24342105263157898
415,1065.445232466509,0.23684210526315785
416,1068.2427107959024,0.24342105263157898
417,1068.2427107959024,0.25
418,1071.0401891252955,0.25
419,1071.0401891252955,0.256578947368421
420,1073.837667454689,0.256578947368421
421,1076.635145784082,0.256578947368421
422,1079.432624113475,0.25
423,1079.432624113475,0.256578947368421
424,1082.2301024428684,0.25
425,1082.2301024428684,0.24342105263157898
426,1085.0275807722614,0.24342105263157898
427,1085.0275807722614,0.23684210526315785
428,1087.825059101655,0.23026315789473684
429,1087.825059101655,0.23684210526315785
430,1090.622537431048,0.22368421052631582
431,1090.622537431048,0.23026315789473684
432,1093.4200157604414,0.2171052631578947
433,1093.4200157604414,0.22368421052631582
434,1096.2174940898344,0.2171052631578947
435,1096.2174940898344,0.22368421052631582
436,1099.014972419228,0.23026315789473684
437,1099.014972419228,0.22368421052631582
438,1101.812450748621,0.23026315789473684
439,1101.812450748621,0.24342105263157898
440,1101.812450748621,0.23684210526315785
441,1104.6099290780144,0.256578947368421
442,1104.6099290780144,0.24342105263157898
443,1104.6099290780144,0.26315789473684215
444,1104.6099290780144,0.25
445,1104.6099290780144,0.26973684210526316
446,1107.4074074074074,0.2828947368421053
447,1107.4074074074074,0.2763157894736842
448,1107.4074074074074,0.26973684210526316
449,1110.2048857368004,0.2894736842105263
450,1110.2048857368004,0.3026315789473685
451,1110.2048857368004,0.29605263157894735
452,1110.2048857368004,0.3092105263157895
453,1110.2048857368004,0.2828947368421053
454,1113.0023640661939,0.32894736842105265
455,1113.0023640661939,0.3157894736842105
456,1113.0023640661939,0.3092105263157895
457,1113.0023640661939,0.3223684210526315
458,1115.799842395587,0.35526315789473684
459,1115.799842395587,0.3421052631578947
460,1115.799842395587,0.32894736842105265
461,1115.799842395587,0.3355263157894737
462,1115.799842395587,0.3486842105263158
463,1118.5973207249804,0.35526315789473684
464,1118.5973207249804,0.36184210526315785
465,1118.5973207249804,0.368421052631579
466,1121.3947990543734,0.375
467,1121.3947990543734,0.4144736842105263
468,1121.3947990543734,0.38815789473684215
469,1121.3947990543734,0.4078947368421053
470,1121.3947990543734,0.368421052631579
471,1121.3947990543734,0.4013157894736842
472,1121.3947990543734,0.381578947368421
473,1121.3947990543734,0.39473684210526316
