,wavenumbers,absorbance
0,452.797478329393,0.052631578947368474
1,455.5949566587865,0.052631578947368474
2,458.3924349881795,0.052631578947368474
3,461.189913317573,0.052631578947368474
4,463.987391646966,0.052631578947368474
5,466.78486997635946,0.052631578947368474
6,469.5823483057525,0.052631578947368474
7,472.37982663514595,0.052631578947368474
8,475.17730496453896,0.052631578947368474
9,477.97478329393243,0.052631578947368474
10,480.77226162332545,0.052631578947368474
11,483.56973995271846,0.052631578947368474
12,486.36721828211193,0.052631578947368474
13,489.16469661150495,0.052631578947368474
14,491.9621749408984,0.052631578947368474
15,494.75965327029144,0.052631578947368474
16,497.5571315996849,0.052631578947368474
17,500.3546099290779,0.05921052631578949
18,500.3546099290779,0.052631578947368474
19,503.1520882584714,0.05921052631578949
20,505.9495665878644,0.06578947368421051
21,505.9495665878644,0.05921052631578949
22,508.7470449172579,0.06578947368421051
23,508.7470449172579,0.07236842105263153
24,511.5445232466509,0.07236842105263153
25,511.5445232466509,0.07894736842105265
26,514.3420015760439,0.09210526315789469
27,514.3420015760439,0.09868421052631582
28,514.3420015760439,0.08552631578947367
29,514.3420015760439,0.07894736842105265
30,517.1394799054374,0.10526315789473684
31,517.1394799054374,0.09868421052631582
32,519.9369582348304,0.09868421052631582
33,519.9369582348304,0.09210526315789469
34,519.9369582348304,0.08552631578947367
35,519.9369582348304,0.10526315789473684
36,519.9369582348304,0.07894736842105265
37,522.7344365642239,0.06578947368421051
38,522.7344365642239,0.07236842105263153
39,522.7344365642239,0.07894736842105265
40,525.5319148936169,0.052631578947368474
41,525.5319148936169,0.06578947368421051
42,525.5319148936169,0.05921052631578949
43,528.3293932230104,0.052631578947368474
44,528.3293932230104,0.046052631578947345
45,531.1268715524034,0.046052631578947345
46,533.9243498817968,0.046052631578947345
47,536.7218282111899,0.046052631578947345
48,539.5193065405833,0.05921052631578949
49,539.5193065405833,0.052631578947368474
50,539.5193065405833,0.046052631578947345
51,542.3167848699763,0.05921052631578949
52,545.1142631993694,0.07894736842105265
53,545.1142631993694,0.06578947368421051
54,545.1142631993694,0.05921052631578949
55,545.1142631993694,0.07236842105263153
56,547.9117415287628,0.07894736842105265
57,547.9117415287628,0.08552631578947367
58,550.7092198581558,0.08552631578947367
59,550.7092198581558,0.09868421052631582
60,550.7092198581558,0.10526315789473684
61,550.7092198581558,0.09210526315789469
62,553.5066981875493,0.10526315789473684
63,553.5066981875493,0.09868421052631582
64,556.3041765169423,0.08552631578947367
65,556.3041765169423,0.07894736842105265
66,556.3041765169423,0.09210526315789469
67,556.3041765169423,0.09868421052631582
68,559.1016548463358,0.07236842105263153
69,559.1016548463358,0.07894736842105265
70,561.8991331757288,0.07236842105263153
71,561.8991331757288,0.06578947368421051
72,564.6966115051223,0.06578947368421051
73,567.4940898345153,0.06578947368421051
74,567.4940898345153,0.07236842105263153
75,570.2915681639088,0.07236842105263153
76,570.2915681639088,0.07894736842105265
77,573.0890464933018,0.07894736842105265
78,573.0890464933018,0.08552631578947367
79,575.8865248226948,0.09210526315789469
80,575.8865248226948,0.08552631578947367
81,575.8865248226948,0.09868421052631582
82,578.6840031520883,0.10526315789473684
83,578.6840031520883,0.09868421052631582
84,581.4814814814813,0.11842105263157898
85,581.4814814814813,0.10526315789473684
86,581.4814814814813,0.11184210526315785
87,584.2789598108748,0.11842105263157898
88,587.0764381402678,0.11184210526315785
89,587.0764381402678,0.11842105263157898
90,589.8739164696613,0.08552631578947367
91,589.8739164696613,0.10526315789473684
92,589.8739164696613,0.11184210526315785
93,589.8739164696613,0.09868421052631582
94,589.8739164696613,0.09210526315789469
95,592.6713947990543,0.08552631578947367
96,592.6713947990543,0.07894736842105265
97,592.6713947990543,0.07236842105263153
98,595.4688731284477,0.052631578947368474
99,595.4688731284477,0.06578947368421051
100,595.4688731284477,0.05921052631578949
101,595.4688731284477,0.07236842105263153
102,598.2663514578408,0.052631578947368474
103,598.2663514578408,0.046052631578947345
104,601.0638297872342,0.03947368421052633
105,601.0638297872342,0.046052631578947345
106,603.8613081166272,0.046052631578947345
107,603.8613081166272,0.03947368421052633
108,606.6587864460207,0.046052631578947345
109,606.6587864460207,0.03947368421052633
110,609.4562647754137,0.03947368421052633
111,612.2537431048067,0.03947368421052633
112,612.2537431048067,0.03289473684210531
113,615.0512214342002,0.03289473684210531
114,615.0512214342002,0.03947368421052633
115,617.8486997635932,0.03947368421052633
116,620.6461780929867,0.02631578947368418
117,620.6461780929867,0.03289473684210531
118,620.6461780929867,0.03947368421052633
119,623.4436564223797,0.019736842105263164
120,623.4436564223797,0.02631578947368418
121,626.2411347517732,0.019736842105263164
122,629.0386130811662,0.019736842105263164
123,631.8360914105597,0.03289473684210531
124,631.8360914105597,0.02631578947368418
125,631.8360914105597,0.019736842105263164
126,634.6335697399527,0.03289473684210531
127,637.4310480693462,0.03289473684210531
128,637.4310480693462,0.02631578947368418
129,637.4310480693462,0.019736842105263164
130,640.2285263987392,0.019736842105263164
131,643.0260047281322,0.013157894736842146
132,643.0260047281322,0.019736842105263164
133,645.8234830575257,0.019736842105263164
134,648.6209613869187,0.019736842105263164
135,651.4184397163122,0.02631578947368418
136,651.4184397163122,0.019736842105263164
137,654.2159180457052,0.02631578947368418
138,657.0133963750986,0.02631578947368418
139,659.8108747044917,0.02631578947368418
140,662.6083530338851,0.02631578947368418
141,665.4058313632781,0.02631578947368418
142,668.2033096926716,0.02631578947368418
143,668.2033096926716,0.03289473684210531
144,671.0007880220646,0.03947368421052633
145,671.0007880220646,0.03289473684210531
146,673.7982663514576,0.03947368421052633
147,673.7982663514576,0.046052631578947345
148,676.5957446808511,0.05921052631578949
149,676.5957446808511,0.07894736842105265
150,676.5957446808511,0.052631578947368474
151,676.5957446808511,0.06578947368421051
152,676.5957446808511,0.07236842105263153
153,676.5957446808511,0.046052631578947345
154,679.3932230102441,0.07894736842105265
155,682.1907013396376,0.052631578947368474
156,682.1907013396376,0.07894736842105265
157,682.1907013396376,0.07236842105263153
158,682.1907013396376,0.05921052631578949
159,682.1907013396376,0.06578947368421051
160,684.9881796690306,0.052631578947368474
161,684.9881796690306,0.046052631578947345
162,687.7856579984241,0.046052631578947345
163,690.5831363278171,0.052631578947368474
164,690.5831363278171,0.05921052631578949
165,690.5831363278171,0.046052631578947345
166,693.3806146572106,0.07894736842105265
167,693.3806146572106,0.08552631578947367
168,693.3806146572106,0.125
169,693.3806146572106,0.11184210526315785
170,693.3806146572106,0.07236842105263153
171,693.3806146572106,0.09210526315789469
172,693.3806146572106,0.05921052631578949
173,693.3806146572106,0.09868421052631582
174,693.3806146572106,0.13157894736842102
175,693.3806146572106,0.06578947368421051
176,693.3806146572106,0.11842105263157898
177,693.3806146572106,0.10526315789473684
178,696.1780929866036,0.14473684210526316
179,696.1780929866036,0.17105263157894735
180,696.1780929866036,0.1578947368421053
181,696.1780929866036,0.16447368421052633
182,696.1780929866036,0.13815789473684215
183,696.1780929866036,0.13157894736842102
184,696.1780929866036,0.15131578947368418
185,696.1780929866036,0.17763157894736847
186,698.9755713159971,0.1907894736842105
187,698.9755713159971,0.1842105263157895
188,698.9755713159971,0.17763157894736847
189,701.7730496453901,0.1907894736842105
190,701.7730496453901,0.19736842105263153
191,704.5705279747831,0.20394736842105265
192,704.5705279747831,0.19736842105263153
193,704.5705279747831,0.22368421052631582
194,704.5705279747831,0.23026315789473684
195,704.5705279747831,0.2171052631578947
196,704.5705279747831,0.21052631578947367
197,707.3680063041766,0.2828947368421053
198,707.3680063041766,0.3092105263157895
199,707.3680063041766,0.3355263157894737
200,707.3680063041766,0.3223684210526315
201,707.3680063041766,0.24342105263157898
202,707.3680063041766,0.25
203,707.3680063041766,0.23684210526315785
204,707.3680063041766,0.3421052631578947
205,707.3680063041766,0.26315789473684215
206,707.3680063041766,0.23026315789473684
207,707.3680063041766,0.29605263157894735
208,707.3680063041766,0.2894736842105263
209,707.3680063041766,0.26973684210526316
210,707.3680063041766,0.32894736842105265
211,707.3680063041766,0.3486842105263158
212,707.3680063041766,0.2763157894736842
213,707.3680063041766,0.3026315789473685
214,707.3680063041766,0.3157894736842105
215,707.3680063041766,0.256578947368421
216,710.1654846335696,0.375
217,710.1654846335696,0.3486842105263158
218,710.1654846335696,0.35526315789473684
219,710.1654846335696,0.368421052631579
220,710.1654846335696,0.36184210526315785
221,712.962962962963,0.375
222,712.962962962963,0.3223684210526315
223,712.962962962963,0.3355263157894737
224,712.962962962963,0.3421052631578947
225,712.962962962963,0.3486842105263158
226,712.962962962963,0.35526315789473684
227,712.962962962963,0.32894736842105265
228,712.962962962963,0.36184210526315785
229,712.962962962963,0.368421052631579
230,715.7604412923561,0.3026315789473685
231,715.7604412923561,0.3223684210526315
232,715.7604412923561,0.26973684210526316
233,715.7604412923561,0.2763157894736842
234,715.7604412923561,0.3157894736842105
235,715.7604412923561,0.3092105263157895
236,715.7604412923561,0.26315789473684215
237,715.7604412923561,0.29605263157894735
238,715.7604412923561,0.2828947368421053
239,715.7604412923561,0.2894736842105263
240,718.5579196217495,0.1842105263157895
241,718.5579196217495,0.22368421052631582
242,718.5579196217495,0.1578947368421053
243,718.5579196217495,0.25
244,718.5579196217495,0.19736842105263153
245,718.5579196217495,0.16447368421052633
246,718.5579196217495,0.256578947368421
247,718.5579196217495,0.1907894736842105
248,718.5579196217495,0.23026315789473684
249,718.5579196217495,0.21052631578947367
250,718.5579196217495,0.17105263157894735
251,718.5579196217495,0.26315789473684215
252,718.5579196217495,0.2171052631578947
253,718.5579196217495,0.17763157894736847
254,718.5579196217495,0.24342105263157898
255,718.5579196217495,0.20394736842105265
256,718.5579196217495,0.23684210526315785
257,721.3553979511425,0.13157894736842102
258,721.3553979511425,0.15131578947368418
259,721.3553979511425,0.14473684210526316
260,721.3553979511425,0.13815789473684215
261,721.3553979511425,0.1578947368421053
262,724.152876280536,0.11842105263157898
263,724.152876280536,0.11184210526315785
264,724.152876280536,0.13157894736842102
265,724.152876280536,0.125
266,726.950354609929,0.10526315789473684
267,726.950354609929,0.11184210526315785
268,729.7478329393225,0.09868421052631582
269,729.7478329393225,0.09210526315789469
270,729.7478329393225,0.08552631578947367
271,729.7478329393225,0.07894736842105265
272,729.7478329393225,0.10526315789473684
273,732.5453112687155,0.05921052631578949
274,732.5453112687155,0.07236842105263153
275,732.5453112687155,0.046052631578947345
276,732.5453112687155,0.07894736842105265
277,732.5453112687155,0.052631578947368474
278,732.5453112687155,0.06578947368421051
279,735.3427895981085,0.03947368421052633
280,735.3427895981085,0.046052631578947345
281,738.140267927502,0.03947368421052633
282,740.937746256895,0.03947368421052633
283,743.7352245862885,0.052631578947368474
284,743.7352245862885,0.046052631578947345
285,743.7352245862885,0.03947368421052633
286,746.5327029156815,0.05921052631578949
287,746.5327029156815,0.052631578947368474
288,749.330181245075,0.06578947368421051
289,749.330181245075,0.07236842105263153
290,749.330181245075,0.05921052631578949
291,752.127659574468,0.07236842105263153
292,752.127659574468,0.07894736842105265
293,752.127659574468,0.08552631578947367
294,754.9251379038615,0.17763157894736847
295,754.9251379038615,0.11842105263157898
296,754.9251379038615,0.08552631578947367
297,754.9251379038615,0.1842105263157895
298,754.9251379038615,0.1907894736842105
299,754.9251379038615,0.09868421052631582
300,754.9251379038615,0.15131578947368418
301,754.9251379038615,0.16447368421052633
302,754.9251379038615,0.1578947368421053
303,754.9251379038615,0.14473684210526316
304,754.9251379038615,0.11184210526315785
305,754.9251379038615,0.17105263157894735
306,754.9251379038615,0.09210526315789469
307,754.9251379038615,0.13815789473684215
308,754.9251379038615,0.10526315789473684
309,754.9251379038615,0.13157894736842102
310,754.9251379038615,0.125
311,757.7226162332545,0.23026315789473684
312,757.7226162332545,0.25
313,757.7226162332545,0.256578947368421
314,757.7226162332545,0.19736842105263153
315,757.7226162332545,0.20394736842105265
316,757.7226162332545,0.24342105263157898
317,757.7226162332545,0.2171052631578947
318,757.7226162332545,0.21052631578947367
319,757.7226162332545,0.22368421052631582
320,757.7226162332545,0.1907894736842105
321,757.7226162332545,0.23684210526315785
322,760.520094562648,0.26973684210526316
323,760.520094562648,0.256578947368421
324,760.520094562648,0.3026315789473685
325,760.520094562648,0.2894736842105263
326,760.520094562648,0.26315789473684215
327,760.520094562648,0.3092105263157895
328,760.520094562648,0.2763157894736842
329,760.520094562648,0.29605263157894735
330,760.520094562648,0.2828947368421053
331,760.520094562648,0.3157894736842105
332,763.317572892041,0.3157894736842105
333,763.317572892041,0.32894736842105265
334,763.317572892041,0.3223684210526315
335,763.317572892041,0.3421052631578947
336,763.317572892041,0.3355263157894737
337,763.317572892041,0.3486842105263158
338,766.115051221434,0.2894736842105263
339,766.115051221434,0.2828947368421053
340,766.115051221434,0.32894736842105265
341,766.115051221434,0.3223684210526315
342,766.115051221434,0.29605263157894735
343,766.115051221434,0.3026315789473685
344,766.115051221434,0.3355263157894737
345,766.115051221434,0.3157894736842105
346,766.115051221434,0.3092105263157895
347,766.115051221434,0.2763157894736842
348,766.115051221434,0.3421052631578947
349,768.9125295508275,0.26973684210526316
350,768.9125295508275,0.21052631578947367
351,768.9125295508275,0.2171052631578947
352,768.9125295508275,0.24342105263157898
353,768.9125295508275,0.23684210526315785
354,768.9125295508275,0.26315789473684215
355,768.9125295508275,0.2763157894736842
356,768.9125295508275,0.20394736842105265
357,768.9125295508275,0.256578947368421
358,768.9125295508275,0.23026315789473684
359,768.9125295508275,0.22368421052631582
360,768.9125295508275,0.19736842105263153
361,768.9125295508275,0.25
362,768.9125295508275,0.1907894736842105
363,768.9125295508275,0.13157894736842102
364,768.9125295508275,0.13815789473684215
365,768.9125295508275,0.1842105263157895
366,768.9125295508275,0.17763157894736847
367,768.9125295508275,0.14473684210526316
368,768.9125295508275,0.17105263157894735
369,768.9125295508275,0.16447368421052633
370,768.9125295508275,0.125
371,768.9125295508275,0.1578947368421053
372,768.9125295508275,0.15131578947368418
373,771.7100078802205,0.11842105263157898
374,771.7100078802205,0.11184210526315785
375,771.7100078802205,0.07894736842105265
376,771.7100078802205,0.10526315789473684
377,771.7100078802205,0.08552631578947367
378,771.7100078802205,0.09868421052631582
379,771.7100078802205,0.09210526315789469
380,771.7100078802205,0.125
381,774.507486209614,0.03947368421052633
382,774.507486209614,0.07894736842105265
383,774.507486209614,0.07236842105263153
384,774.507486209614,0.06578947368421051
385,774.507486209614,0.046052631578947345
386,774.507486209614,0.05921052631578949
387,774.507486209614,0.052631578947368474
388,777.304964539007,0.03289473684210531
389,777.304964539007,0.03947368421052633
390,780.1024428684004,0.03289473684210531
391,780.1024428684004,0.02631578947368418
392,782.8999211977934,0.02631578947368418
393,785.6973995271869,0.02631578947368418
394,785.6973995271869,0.019736842105263164
395,788.4948778565799,0.02631578947368418
396,788.4948778565799,0.019736842105263164
397,791.2923561859734,0.03289473684210531
398,791.2923561859734,0.02631578947368418
399,791.2923561859734,0.03947368421052633
400,794.0898345153664,0.03947368421052633
401,794.0898345153664,0.07236842105263153
402,794.0898345153664,0.05921052631578949
403,794.0898345153664,0.06578947368421051
404,794.0898345153664,0.046052631578947345
405,794.0898345153664,0.052631578947368474
406,796.8873128447594,0.07894736842105265
407,796.8873128447594,0.08552631578947367
408,796.8873128447594,0.07236842105263153
409,799.6847911741529,0.10526315789473684
410,799.6847911741529,0.08552631578947367
411,799.6847911741529,0.09868421052631582
412,799.6847911741529,0.09210526315789469
413,802.4822695035459,0.10526315789473684
414,805.2797478329394,0.10526315789473684
415,808.0772261623324,0.10526315789473684
416,810.8747044917259,0.11184210526315785
417,810.8747044917259,0.10526315789473684
418,813.6721828211189,0.125
419,813.6721828211189,0.11184210526315785
420,813.6721828211189,0.11842105263157898
421,816.4696611505124,0.13157894736842102
422,816.4696611505124,0.1578947368421053
423,816.4696611505124,0.15131578947368418
424,816.4696611505124,0.14473684210526316
425,816.4696611505124,0.13815789473684215
426,816.4696611505124,0.125
427,819.2671394799054,0.1578947368421053
428,819.2671394799054,0.1907894736842105
429,819.2671394799054,0.2828947368421053
430,819.2671394799054,0.1842105263157895
431,819.2671394799054,0.2894736842105263
432,819.2671394799054,0.25
433,819.2671394799054,0.17763157894736847
434,819.2671394799054,0.2763157894736842
435,819.2671394799054,0.29605263157894735
436,819.2671394799054,0.3223684210526315
437,819.2671394799054,0.17105263157894735
438,819.2671394799054,0.3157894736842105
439,819.2671394799054,0.3026315789473685
440,819.2671394799054,0.16447368421052633
441,819.2671394799054,0.32894736842105265
442,819.2671394799054,0.19736842105263153
443,819.2671394799054,0.3092105263157895
444,819.2671394799054,0.24342105263157898
445,819.2671394799054,0.20394736842105265
446,819.2671394799054,0.256578947368421
447,819.2671394799054,0.23684210526315785
448,819.2671394799054,0.26973684210526316
449,819.2671394799054,0.21052631578947367
450,819.2671394799054,0.23026315789473684
451,819.2671394799054,0.22368421052631582
452,819.2671394799054,0.26315789473684215
453,819.2671394799054,0.2171052631578947
454,822.0646178092989,0.375
455,822.0646178092989,0.42105263157894735
456,822.0646178092989,0.4144736842105263
457,822.0646178092989,0.4078947368421053
458,822.0646178092989,0.32894736842105265
459,822.0646178092989,0.4013157894736842
460,822.0646178092989,0.39473684210526316
461,822.0646178092989,0.3355263157894737
462,822.0646178092989,0.38815789473684215
463,822.0646178092989,0.3421052631578947
464,822.0646178092989,0.381578947368421
465,822.0646178092989,0.3486842105263158
466,822.0646178092989,0.36184210526315785
467,822.0646178092989,0.368421052631579
468,822.0646178092989,0.35526315789473684
469,824.8620961386919,0.4342105263157895
470,824.8620961386919,0.4078947368421053
471,824.8620961386919,0.4144736842105263
472,824.8620961386919,0.42105263157894735
473,824.8620961386919,0.4276315789473685
