,wavenumbers,absorbance
0,452.797478329393,0.02631578947368418
1,452.797478329393,0.019736842105263164
2,455.5949566587865,0.03289473684210531
3,455.5949566587865,0.02631578947368418
4,458.3924349881795,0.03289473684210531
5,458.3924349881795,0.03947368421052633
6,461.189913317573,0.03947368421052633
7,463.987391646966,0.03947368421052633
8,463.987391646966,0.03289473684210531
9,466.78486997635946,0.03289473684210531
10,469.5823483057525,0.02631578947368418
11,469.5823483057525,0.03289473684210531
12,472.37982663514595,0.02631578947368418
13,475.17730496453896,0.02631578947368418
14,477.97478329393243,0.02631578947368418
15,477.97478329393243,0.03289473684210531
16,480.77226162332545,0.03289473684210531
17,483.56973995271846,0.03289473684210531
18,486.36721828211193,0.03289473684210531
19,489.16469661150495,0.03289473684210531
20,491.9621749408984,0.03289473684210531
21,494.75965327029144,0.03289473684210531
22,497.5571315996849,0.03289473684210531
23,500.3546099290779,0.03947368421052633
24,503.1520882584714,0.03947368421052633
25,505.9495665878644,0.03947368421052633
26,508.7470449172579,0.03947368421052633
27,511.5445232466509,0.03947368421052633
28,514.3420015760439,0.03947368421052633
29,517.1394799054374,0.03947368421052633
30,519.9369582348304,0.03947368421052633
31,519.9369582348304,0.03289473684210531
32,522.7344365642239,0.03289473684210531
33,525.5319148936169,0.03289473684210531
34,525.5319148936169,0.02631578947368418
35,528.3293932230104,0.02631578947368418
36,531.1268715524034,0.02631578947368418
37,533.9243498817968,0.02631578947368418
38,536.7218282111899,0.02631578947368418
39,539.5193065405833,0.02631578947368418
40,542.3167848699763,0.02631578947368418
41,545.1142631993694,0.02631578947368418
42,547.9117415287628,0.02631578947368418
43,550.7092198581558,0.02631578947368418
44,553.5066981875493,0.02631578947368418
45,556.3041765169423,0.02631578947368418
46,559.1016548463358,0.02631578947368418
47,559.1016548463358,0.019736842105263164
48,561.8991331757288,0.019736842105263164
49,564.6966115051223,0.019736842105263164
50,567.4940898345153,0.019736842105263164
51,570.2915681639088,0.019736842105263164
52,570.2915681639088,0.02631578947368418
53,573.0890464933018,0.02631578947368418
54,575.8865248226948,0.02631578947368418
55,578.6840031520883,0.02631578947368418
56,581.4814814814813,0.02631578947368418
57,584.2789598108748,0.02631578947368418
58,587.0764381402678,0.02631578947368418
59,589.8739164696613,0.02631578947368418
60,592.6713947990543,0.02631578947368418
61,595.4688731284477,0.019736842105263164
62,595.4688731284477,0.02631578947368418
63,598.2663514578408,0.019736842105263164
64,601.0638297872342,0.019736842105263164
65,603.8613081166272,0.019736842105263164
66,606.6587864460207,0.019736842105263164
67,606.6587864460207,0.02631578947368418
68,609.4562647754137,0.02631578947368418
69,612.2537431048067,0.02631578947368418
70,615.0512214342002,0.02631578947368418
71,617.8486997635932,0.02631578947368418
72,620.6461780929867,0.02631578947368418
73,623.4436564223797,0.02631578947368418
74,626.2411347517732,0.02631578947368418
75,629.0386130811662,0.02631578947368418
76,631.8360914105597,0.02631578947368418
77,634.6335697399527,0.02631578947368418
78,637.4310480693462,0.02631578947368418
79,640.2285263987392,0.02631578947368418
80,640.2285263987392,0.019736842105263164
81,643.0260047281322,0.019736842105263164
82,645.8234830575257,0.019736842105263164
83,648.6209613869187,0.019736842105263164
84,651.4184397163122,0.019736842105263164
85,654.2159180457052,0.019736842105263164
86,657.0133963750986,0.019736842105263164
87,659.8108747044917,0.019736842105263164
88,662.6083530338851,0.019736842105263164
89,665.4058313632781,0.019736842105263164
90,668.2033096926716,0.019736842105263164
91,671.0007880220646,0.019736842105263164
92,673.7982663514576,0.019736842105263164
93,676.5957446808511,0.019736842105263164
94,679.3932230102441,0.019736842105263164
95,682.1907013396376,0.019736842105263164
96,684.9881796690306,0.019736842105263164
97,687.7856579984241,0.02631578947368418
98,687.7856579984241,0.019736842105263164
99,690.5831363278171,0.02631578947368418
100,690.5831363278171,0.03289473684210531
101,693.3806146572106,0.03947368421052633
102,693.3806146572106,0.03289473684210531
103,696.1780929866036,0.03947368421052633
104,698.9755713159971,0.03947368421052633
105,698.9755713159971,0.03289473684210531
106,701.7730496453901,0.02631578947368418
107,701.7730496453901,0.03289473684210531
108,704.5705279747831,0.02631578947368418
109,707.3680063041766,0.02631578947368418
110,710.1654846335696,0.02631578947368418
111,712.962962962963,0.02631578947368418
112,712.962962962963,0.019736842105263164
113,715.7604412923561,0.019736842105263164
114,715.7604412923561,0.02631578947368418
115,718.5579196217495,0.02631578947368418
116,721.3553979511425,0.02631578947368418
117,724.152876280536,0.02631578947368418
118,724.152876280536,0.03289473684210531
119,726.950354609929,0.03947368421052633
120,726.950354609929,0.03289473684210531
121,729.7478329393225,0.03947368421052633
122,732.5453112687155,0.03947368421052633
123,732.5453112687155,0.046052631578947345
124,732.5453112687155,0.052631578947368474
125,735.3427895981085,0.052631578947368474
126,738.140267927502,0.05921052631578949
127,738.140267927502,0.07236842105263153
128,738.140267927502,0.06578947368421051
129,738.140267927502,0.052631578947368474
130,740.937746256895,0.08552631578947367
131,740.937746256895,0.07894736842105265
132,740.937746256895,0.07236842105263153
133,743.7352245862885,0.09868421052631582
134,743.7352245862885,0.11184210526315785
135,743.7352245862885,0.10526315789473684
136,743.7352245862885,0.11842105263157898
137,743.7352245862885,0.09210526315789469
138,743.7352245862885,0.08552631578947367
139,746.5327029156815,0.11842105263157898
140,746.5327029156815,0.11184210526315785
141,749.330181245075,0.09868421052631582
142,749.330181245075,0.09210526315789469
143,749.330181245075,0.10526315789473684
144,749.330181245075,0.11184210526315785
145,749.330181245075,0.08552631578947367
146,749.330181245075,0.07894736842105265
147,752.127659574468,0.07236842105263153
148,752.127659574468,0.07894736842105265
149,754.9251379038615,0.05921052631578949
150,754.9251379038615,0.06578947368421051
151,754.9251379038615,0.07236842105263153
152,754.9251379038615,0.052631578947368474
153,757.7226162332545,0.052631578947368474
154,760.520094562648,0.052631578947368474
155,760.520094562648,0.046052631578947345
156,763.317572892041,0.052631578947368474
157,763.317572892041,0.03947368421052633
158,763.317572892041,0.046052631578947345
159,766.115051221434,0.03947368421052633
160,766.115051221434,0.03289473684210531
161,768.9125295508275,0.03947368421052633
162,768.9125295508275,0.03289473684210531
163,771.7100078802205,0.03947368421052633
164,771.7100078802205,0.03289473684210531
165,774.507486209614,0.03289473684210531
166,777.304964539007,0.03289473684210531
167,780.1024428684004,0.03289473684210531
168,782.8999211977934,0.03289473684210531
169,785.6973995271869,0.03289473684210531
170,788.4948778565799,0.03289473684210531
171,791.2923561859734,0.03289473684210531
172,791.2923561859734,0.03947368421052633
173,794.0898345153664,0.03947368421052633
174,794.0898345153664,0.03289473684210531
175,796.8873128447594,0.03947368421052633
176,796.8873128447594,0.03289473684210531
177,799.6847911741529,0.03947368421052633
178,802.4822695035459,0.03947368421052633
179,805.2797478329394,0.046052631578947345
180,805.2797478329394,0.03947368421052633
181,808.0772261623324,0.03947368421052633
182,808.0772261623324,0.046052631578947345
183,810.8747044917259,0.03947368421052633
184,813.6721828211189,0.03947368421052633
185,813.6721828211189,0.046052631578947345
186,816.4696611505124,0.03947368421052633
187,816.4696611505124,0.046052631578947345
188,819.2671394799054,0.046052631578947345
189,819.2671394799054,0.03947368421052633
190,822.0646178092989,0.046052631578947345
191,824.8620961386919,0.046052631578947345
192,827.6595744680849,0.046052631578947345
193,830.4570527974784,0.046052631578947345
194,833.2545311268714,0.052631578947368474
195,833.2545311268714,0.046052631578947345
196,836.0520094562648,0.052631578947368474
197,836.0520094562648,0.05921052631578949
198,838.8494877856579,0.05921052631578949
199,838.8494877856579,0.06578947368421051
200,841.6469661150513,0.06578947368421051
201,844.4444444444443,0.06578947368421051
202,844.4444444444443,0.05921052631578949
203,847.2419227738378,0.05921052631578949
204,850.0394011032308,0.052631578947368474
205,850.0394011032308,0.05921052631578949
206,852.8368794326243,0.052631578947368474
207,855.6343577620173,0.052631578947368474
208,858.4318360914103,0.046052631578947345
209,858.4318360914103,0.052631578947368474
210,861.2293144208038,0.046052631578947345
211,864.0267927501968,0.046052631578947345
212,866.8242710795903,0.046052631578947345
213,866.8242710795903,0.03947368421052633
214,869.6217494089833,0.03947368421052633
215,872.4192277383768,0.03947368421052633
216,875.2167060677698,0.03947368421052633
217,875.2167060677698,0.046052631578947345
218,878.0141843971633,0.046052631578947345
219,880.8116627265563,0.03947368421052633
220,880.8116627265563,0.046052631578947345
221,883.6091410559497,0.03289473684210531
222,883.6091410559497,0.03947368421052633
223,886.4066193853428,0.03289473684210531
224,889.2040977147362,0.03289473684210531
225,892.0015760441293,0.03289473684210531
226,894.7990543735223,0.03947368421052633
227,894.7990543735223,0.03289473684210531
228,897.5965327029157,0.03947368421052633
229,900.3940110323088,0.046052631578947345
230,900.3940110323088,0.03947368421052633
231,903.1914893617022,0.046052631578947345
232,905.9889676910952,0.052631578947368474
233,905.9889676910952,0.046052631578947345
234,908.7864460204887,0.052631578947368474
235,911.5839243498817,0.052631578947368474
236,914.3814026792752,0.052631578947368474
237,917.1788810086682,0.052631578947368474
238,919.9763593380617,0.05921052631578949
239,919.9763593380617,0.052631578947368474
240,922.7738376674547,0.05921052631578949
241,925.5713159968477,0.05921052631578949
242,925.5713159968477,0.06578947368421051
243,928.3687943262412,0.06578947368421051
244,931.1662726556342,0.06578947368421051
245,931.1662726556342,0.07236842105263153
246,933.9637509850277,0.07894736842105265
247,933.9637509850277,0.07236842105263153
248,936.7612293144207,0.08552631578947367
249,936.7612293144207,0.09210526315789469
250,936.7612293144207,0.07894736842105265
251,939.5587076438142,0.09868421052631582
252,939.5587076438142,0.09210526315789469
253,942.3561859732072,0.10526315789473684
254,942.3561859732072,0.09868421052631582
255,945.1536643026006,0.10526315789473684
256,945.1536643026006,0.09868421052631582
257,947.9511426319937,0.09868421052631582
258,950.7486209613871,0.09868421052631582
259,953.5460992907801,0.11184210526315785
260,953.5460992907801,0.09868421052631582
261,953.5460992907801,0.10526315789473684
262,956.3435776201732,0.11184210526315785
263,956.3435776201732,0.11842105263157898
264,959.1410559495666,0.11842105263157898
265,959.1410559495666,0.125
266,961.9385342789597,0.125
267,961.9385342789597,0.13157894736842102
268,964.7360126083531,0.13157894736842102
269,964.7360126083531,0.125
270,967.5334909377461,0.11184210526315785
271,967.5334909377461,0.11842105263157898
272,967.5334909377461,0.10526315789473684
273,967.5334909377461,0.125
274,970.3309692671396,0.09868421052631582
275,970.3309692671396,0.10526315789473684
276,973.1284475965326,0.09868421052631582
277,973.1284475965326,0.09210526315789469
278,973.1284475965326,0.08552631578947367
279,975.9259259259261,0.08552631578947367
280,978.7234042553191,0.08552631578947367
281,981.5208825847126,0.08552631578947367
282,984.3183609141056,0.08552631578947367
283,987.1158392434986,0.09210526315789469
284,987.1158392434986,0.08552631578947367
285,989.9133175728921,0.09210526315789469
286,992.7107959022851,0.08552631578947367
287,992.7107959022851,0.09210526315789469
288,995.5082742316786,0.07894736842105265
289,995.5082742316786,0.08552631578947367
290,998.3057525610716,0.07894736842105265
291,998.3057525610716,0.06578947368421051
292,998.3057525610716,0.07236842105263153
293,998.3057525610716,0.05921052631578949
294,1001.103230890465,0.052631578947368474
295,1001.103230890465,0.05921052631578949
296,1003.9007092198581,0.052631578947368474
297,1003.9007092198581,0.046052631578947345
298,1006.6981875492515,0.046052631578947345
299,1009.4956658786446,0.046052631578947345
300,1009.4956658786446,0.052631578947368474
301,1012.293144208038,0.052631578947368474
302,1012.293144208038,0.05921052631578949
303,1015.090622537431,0.05921052631578949
304,1017.8881008668241,0.05921052631578949
305,1017.8881008668241,0.06578947368421051
306,1020.6855791962175,0.05921052631578949
307,1020.6855791962175,0.052631578947368474
308,1023.4830575256105,0.052631578947368474
309,1023.4830575256105,0.046052631578947345
310,1026.280535855004,0.046052631578947345
311,1026.280535855004,0.03947368421052633
312,1029.078014184397,0.03947368421052633
313,1029.078014184397,0.03289473684210531
314,1031.8754925137905,0.03289473684210531
315,1034.6729708431835,0.03289473684210531
316,1037.470449172577,0.03289473684210531
317,1040.26792750197,0.03289473684210531
318,1040.26792750197,0.03947368421052633
319,1043.0654058313635,0.03947368421052633
320,1045.8628841607565,0.03947368421052633
321,1045.8628841607565,0.046052631578947345
322,1048.6603624901495,0.05921052631578949
323,1048.6603624901495,0.06578947368421051
324,1048.6603624901495,0.052631578947368474
325,1048.6603624901495,0.046052631578947345
326,1048.6603624901495,0.07236842105263153
327,1051.457840819543,0.07236842105263153
328,1051.457840819543,0.07894736842105265
329,1051.457840819543,0.09210526315789469
330,1051.457840819543,0.08552631578947367
331,1054.255319148936,0.11184210526315785
332,1054.255319148936,0.09868421052631582
333,1054.255319148936,0.11842105263157898
334,1054.255319148936,0.09210526315789469
335,1054.255319148936,0.125
336,1054.255319148936,0.10526315789473684
337,1057.0527974783295,0.125
338,1057.0527974783295,0.13157894736842102
339,1057.0527974783295,0.13815789473684215
340,1059.8502758077225,0.14473684210526316
341,1059.8502758077225,0.13815789473684215
342,1062.647754137116,0.14473684210526316
343,1062.647754137116,0.13815789473684215
344,1065.445232466509,0.13815789473684215
345,1065.445232466509,0.13157894736842102
346,1068.2427107959024,0.125
347,1068.2427107959024,0.13157894736842102
348,1068.2427107959024,0.11842105263157898
349,1071.0401891252955,0.11842105263157898
350,1071.0401891252955,0.11184210526315785
351,1071.0401891252955,0.10526315789473684
352,1073.837667454689,0.09868421052631582
353,1073.837667454689,0.09210526315789469
354,1073.837667454689,0.10526315789473684
355,1076.635145784082,0.09210526315789469
356,1076.635145784082,0.08552631578947367
357,1079.432624113475,0.08552631578947367
358,1079.432624113475,0.07894736842105265
359,1082.2301024428684,0.07894736842105265
360,1082.2301024428684,0.08552631578947367
361,1085.0275807722614,0.08552631578947367
362,1087.825059101655,0.08552631578947367
363,1090.622537431048,0.08552631578947367
364,1090.622537431048,0.09210526315789469
365,1093.4200157604414,0.09210526315789469
366,1096.2174940898344,0.09868421052631582
367,1096.2174940898344,0.09210526315789469
368,1099.014972419228,0.10526315789473684
369,1099.014972419228,0.09868421052631582
370,1101.812450748621,0.10526315789473684
371,1101.812450748621,0.11184210526315785
372,1104.6099290780144,0.13815789473684215
373,1104.6099290780144,0.13157894736842102
374,1104.6099290780144,0.11842105263157898
375,1104.6099290780144,0.125
376,1104.6099290780144,0.11184210526315785
377,1107.4074074074074,0.13815789473684215
378,1107.4074074074074,0.15131578947368418
379,1107.4074074074074,0.14473684210526316
380,1110.2048857368004,0.16447368421052633
381,1110.2048857368004,0.17105263157894735
382,1110.2048857368004,0.1578947368421053
383,1110.2048857368004,0.17763157894736847
384,1110.2048857368004,0.1842105263157895
385,1110.2048857368004,0.15131578947368418
386,1113.0023640661939,0.1842105263157895
387,1113.0023640661939,0.1907894736842105
388,1113.0023640661939,0.19736842105263153
389,1115.799842395587,0.20394736842105265
390,1115.799842395587,0.21052631578947367
391,1115.799842395587,0.22368421052631582
392,1115.799842395587,0.19736842105263153
393,1115.799842395587,0.2171052631578947
394,1118.5973207249804,0.22368421052631582
395,1118.5973207249804,0.23026315789473684
396,1121.3947990543734,0.25
397,1121.3947990543734,0.256578947368421
398,1121.3947990543734,0.23026315789473684
399,1121.3947990543734,0.23684210526315785
400,1121.3947990543734,0.24342105263157898
401,1124.1922773837669,0.26973684210526316
402,1124.1922773837669,0.26315789473684215
403,1124.1922773837669,0.256578947368421
404,1126.9897557131599,0.2828947368421053
405,1126.9897557131599,0.26973684210526316
406,1126.9897557131599,0.2763157894736842
407,1126.9897557131599,0.2894736842105263
408,1129.7872340425533,0.3092105263157895
409,1129.7872340425533,0.3157894736842105
410,1129.7872340425533,0.32894736842105265
411,1129.7872340425533,0.29605263157894735
412,1129.7872340425533,0.3223684210526315
413,1129.7872340425533,0.3421052631578947
414,1129.7872340425533,0.3486842105263158
415,1129.7872340425533,0.3026315789473685
416,1129.7872340425533,0.3355263157894737
417,1129.7872340425533,0.2894736842105263
418,1132.5847123719464,0.368421052631579
419,1132.5847123719464,0.381578947368421
420,1132.5847123719464,0.38815789473684215
421,1132.5847123719464,0.3486842105263158
422,1132.5847123719464,0.375
423,1132.5847123719464,0.39473684210526316
424,1132.5847123719464,0.36184210526315785
425,1132.5847123719464,0.35526315789473684
426,1135.3821907013398,0.48026315789473684
427,1135.3821907013398,0.4473684210526315
428,1135.3821907013398,0.4671052631578947
429,1135.3821907013398,0.4605263157894737
430,1135.3821907013398,0.45394736842105265
431,1135.3821907013398,0.4736842105263158
432,1135.3821907013398,0.4078947368421053
433,1135.3821907013398,0.4407894736842105
434,1135.3821907013398,0.4144736842105263
435,1135.3821907013398,0.42105263157894735
436,1135.3821907013398,0.48684210526315785
437,1135.3821907013398,0.4342105263157895
438,1135.3821907013398,0.4013157894736842
439,1135.3821907013398,0.4276315789473685
440,1135.3821907013398,0.39473684210526316
441,1138.1796690307328,0.5
442,1138.1796690307328,0.513157894736842
443,1138.1796690307328,0.506578947368421
444,1138.1796690307328,0.493421052631579
445,1138.1796690307328,0.48684210526315785
446,1138.1796690307328,0.5328947368421053
447,1138.1796690307328,0.5197368421052632
448,1138.1796690307328,0.5263157894736843
449,1138.1796690307328,0.5394736842105263
450,1140.9771473601263,0.5789473684210527
451,1140.9771473601263,0.5921052631578947
452,1140.9771473601263,0.5986842105263157
453,1140.9771473601263,0.6052631578947368
454,1140.9771473601263,0.5855263157894737
455,1140.9771473601263,0.5723684210526316
456,1140.9771473601263,0.611842105263158
457,1140.9771473601263,0.5657894736842105
458,1140.9771473601263,0.5592105263157895
459,1140.9771473601263,0.5526315789473684
460,1140.9771473601263,0.5460526315789473
461,1140.9771473601263,0.5394736842105263
462,1140.9771473601263,0.618421052631579
463,1140.9771473601263,0.625
464,1143.7746256895193,0.638157894736842
465,1143.7746256895193,0.625
466,1143.7746256895193,0.631578947368421
467,1146.5721040189123,0.625
