,wavenumbers,absorbance
0,452.797478329393,0.019736842105263164
1,455.5949566587865,0.019736842105263164
2,458.3924349881795,0.019736842105263164
3,458.3924349881795,0.02631578947368418
4,461.189913317573,0.02631578947368418
5,463.987391646966,0.03289473684210531
6,463.987391646966,0.02631578947368418
7,466.78486997635946,0.02631578947368418
8,469.5823483057525,0.02631578947368418
9,472.37982663514595,0.02631578947368418
10,475.17730496453896,0.02631578947368418
11,477.97478329393243,0.02631578947368418
12,480.77226162332545,0.02631578947368418
13,483.56973995271846,0.02631578947368418
14,486.36721828211193,0.02631578947368418
15,489.16469661150495,0.02631578947368418
16,491.9621749408984,0.02631578947368418
17,494.75965327029144,0.02631578947368418
18,494.75965327029144,0.019736842105263164
19,497.5571315996849,0.019736842105263164
20,500.3546099290779,0.019736842105263164
21,503.1520882584714,0.019736842105263164
22,505.9495665878644,0.019736842105263164
23,508.7470449172579,0.019736842105263164
24,511.5445232466509,0.019736842105263164
25,511.5445232466509,0.02631578947368418
26,514.3420015760439,0.02631578947368418
27,517.1394799054374,0.02631578947368418
28,519.9369582348304,0.019736842105263164
29,519.9369582348304,0.02631578947368418
30,522.7344365642239,0.019736842105263164
31,525.5319148936169,0.019736842105263164
32,528.3293932230104,0.019736842105263164
33,531.1268715524034,0.02631578947368418
34,531.1268715524034,0.019736842105263164
35,536.7218282111899,0.02631578947368418
36,539.5193065405833,0.02631578947368418
37,542.3167848699763,0.02631578947368418
38,545.1142631993694,0.02631578947368418
39,547.9117415287628,0.02631578947368418
40,550.7092198581558,0.02631578947368418
41,553.5066981875493,0.02631578947368418
42,556.3041765169423,0.02631578947368418
43,559.1016548463358,0.02631578947368418
44,561.8991331757288,0.02631578947368418
45,564.6966115051223,0.02631578947368418
46,567.4940898345153,0.02631578947368418
47,570.2915681639088,0.02631578947368418
48,573.0890464933018,0.02631578947368418
49,575.8865248226948,0.02631578947368418
50,578.6840031520883,0.02631578947368418
51,581.4814814814813,0.02631578947368418
52,584.2789598108748,0.02631578947368418
53,584.2789598108748,0.03289473684210531
54,587.0764381402678,0.03289473684210531
55,587.0764381402678,0.02631578947368418
56,589.8739164696613,0.02631578947368418
57,592.6713947990543,0.02631578947368418
58,595.4688731284477,0.02631578947368418
59,598.2663514578408,0.019736842105263164
60,598.2663514578408,0.02631578947368418
61,601.0638297872342,0.02631578947368418
62,601.0638297872342,0.019736842105263164
63,603.8613081166272,0.02631578947368418
64,603.8613081166272,0.019736842105263164
65,606.6587864460207,0.02631578947368418
66,609.4562647754137,0.02631578947368418
67,612.2537431048067,0.02631578947368418
68,612.2537431048067,0.019736842105263164
69,615.0512214342002,0.02631578947368418
70,615.0512214342002,0.019736842105263164
71,617.8486997635932,0.02631578947368418
72,617.8486997635932,0.019736842105263164
73,620.6461780929867,0.019736842105263164
74,620.6461780929867,0.02631578947368418
75,623.4436564223797,0.019736842105263164
76,626.2411347517732,0.019736842105263164
77,629.0386130811662,0.019736842105263164
78,631.8360914105597,0.019736842105263164
79,634.6335697399527,0.019736842105263164
80,637.4310480693462,0.019736842105263164
81,640.2285263987392,0.019736842105263164
82,643.0260047281322,0.019736842105263164
83,645.8234830575257,0.019736842105263164
84,645.8234830575257,0.02631578947368418
85,648.6209613869187,0.02631578947368418
86,651.4184397163122,0.02631578947368418
87,651.4184397163122,0.019736842105263164
88,654.2159180457052,0.019736842105263164
89,657.0133963750986,0.019736842105263164
90,659.8108747044917,0.019736842105263164
91,662.6083530338851,0.019736842105263164
92,665.4058313632781,0.019736842105263164
93,668.2033096926716,0.019736842105263164
94,671.0007880220646,0.019736842105263164
95,673.7982663514576,0.019736842105263164
96,676.5957446808511,0.019736842105263164
97,676.5957446808511,0.02631578947368418
98,679.3932230102441,0.02631578947368418
99,682.1907013396376,0.02631578947368418
100,682.1907013396376,0.03289473684210531
101,684.9881796690306,0.03289473684210531
102,687.7856579984241,0.03289473684210531
103,690.5831363278171,0.03289473684210531
104,690.5831363278171,0.03947368421052633
105,693.3806146572106,0.03947368421052633
106,693.3806146572106,0.052631578947368474
107,693.3806146572106,0.046052631578947345
108,696.1780929866036,0.052631578947368474
109,698.9755713159971,0.05921052631578949
110,698.9755713159971,0.052631578947368474
111,701.7730496453901,0.05921052631578949
112,704.5705279747831,0.052631578947368474
113,704.5705279747831,0.05921052631578949
114,707.3680063041766,0.052631578947368474
115,707.3680063041766,0.046052631578947345
116,710.1654846335696,0.046052631578947345
117,712.962962962963,0.046052631578947345
118,715.7604412923561,0.046052631578947345
119,715.7604412923561,0.052631578947368474
120,718.5579196217495,0.052631578947368474
121,721.3553979511425,0.052631578947368474
122,724.152876280536,0.052631578947368474
123,726.950354609929,0.052631578947368474
124,729.7478329393225,0.052631578947368474
125,732.5453112687155,0.06578947368421051
126,732.5453112687155,0.052631578947368474
127,732.5453112687155,0.05921052631578949
128,732.5453112687155,0.07236842105263153
129,735.3427895981085,0.07236842105263153
130,735.3427895981085,0.07894736842105265
131,738.140267927502,0.07894736842105265
132,740.937746256895,0.07236842105263153
133,740.937746256895,0.07894736842105265
134,743.7352245862885,0.05921052631578949
135,743.7352245862885,0.06578947368421051
136,743.7352245862885,0.07236842105263153
137,746.5327029156815,0.05921052631578949
138,746.5327029156815,0.052631578947368474
139,749.330181245075,0.046052631578947345
140,749.330181245075,0.052631578947368474
141,749.330181245075,0.03947368421052633
142,752.127659574468,0.03947368421052633
143,754.9251379038615,0.03289473684210531
144,754.9251379038615,0.03947368421052633
145,757.7226162332545,0.03289473684210531
146,760.520094562648,0.03289473684210531
147,760.520094562648,0.03947368421052633
148,763.317572892041,0.03947368421052633
149,766.115051221434,0.03947368421052633
150,768.9125295508275,0.03947368421052633
151,768.9125295508275,0.03289473684210531
152,771.7100078802205,0.03289473684210531
153,774.507486209614,0.03289473684210531
154,777.304964539007,0.03289473684210531
155,780.1024428684004,0.03289473684210531
156,782.8999211977934,0.03289473684210531
157,785.6973995271869,0.02631578947368418
158,785.6973995271869,0.03289473684210531
159,788.4948778565799,0.02631578947368418
160,788.4948778565799,0.03289473684210531
161,791.2923561859734,0.02631578947368418
162,794.0898345153664,0.02631578947368418
163,794.0898345153664,0.03289473684210531
164,796.8873128447594,0.03289473684210531
165,796.8873128447594,0.02631578947368418
166,799.6847911741529,0.03289473684210531
167,802.4822695035459,0.03289473684210531
168,805.2797478329394,0.03289473684210531
169,808.0772261623324,0.03289473684210531
170,810.8747044917259,0.03289473684210531
171,810.8747044917259,0.03947368421052633
172,813.6721828211189,0.03947368421052633
173,816.4696611505124,0.03947368421052633
174,819.2671394799054,0.03947368421052633
175,819.2671394799054,0.02631578947368418
176,819.2671394799054,0.03289473684210531
177,822.0646178092989,0.02631578947368418
178,824.8620961386919,0.02631578947368418
179,827.6595744680849,0.02631578947368418
180,830.4570527974784,0.03289473684210531
181,830.4570527974784,0.02631578947368418
182,833.2545311268714,0.03289473684210531
183,836.0520094562648,0.03289473684210531
184,838.8494877856579,0.03289473684210531
185,841.6469661150513,0.03289473684210531
186,841.6469661150513,0.02631578947368418
187,844.4444444444443,0.02631578947368418
188,847.2419227738378,0.02631578947368418
189,850.0394011032308,0.019736842105263164
190,850.0394011032308,0.02631578947368418
191,852.8368794326243,0.019736842105263164
192,855.6343577620173,0.019736842105263164
193,858.4318360914103,0.019736842105263164
194,861.2293144208038,0.019736842105263164
195,864.0267927501968,0.019736842105263164
196,866.8242710795903,0.019736842105263164
197,869.6217494089833,0.019736842105263164
198,872.4192277383768,0.019736842105263164
199,875.2167060677698,0.019736842105263164
200,878.0141843971633,0.019736842105263164
201,880.8116627265563,0.019736842105263164
202,880.8116627265563,0.02631578947368418
203,883.6091410559497,0.02631578947368418
204,886.4066193853428,0.02631578947368418
205,889.2040977147362,0.02631578947368418
206,892.0015760441293,0.02631578947368418
207,894.7990543735223,0.02631578947368418
208,894.7990543735223,0.03289473684210531
209,897.5965327029157,0.03289473684210531
210,900.3940110323088,0.03947368421052633
211,900.3940110323088,0.03289473684210531
212,903.1914893617022,0.046052631578947345
213,903.1914893617022,0.03947368421052633
214,905.9889676910952,0.046052631578947345
215,908.7864460204887,0.046052631578947345
216,908.7864460204887,0.052631578947368474
217,911.5839243498817,0.052631578947368474
218,911.5839243498817,0.046052631578947345
219,914.3814026792752,0.046052631578947345
220,917.1788810086682,0.046052631578947345
221,917.1788810086682,0.03947368421052633
222,919.9763593380617,0.03947368421052633
223,922.7738376674547,0.03947368421052633
224,922.7738376674547,0.03289473684210531
225,925.5713159968477,0.03289473684210531
226,928.3687943262412,0.03289473684210531
227,928.3687943262412,0.03947368421052633
228,931.1662726556342,0.03947368421052633
229,933.9637509850277,0.03947368421052633
230,936.7612293144207,0.046052631578947345
231,936.7612293144207,0.03947368421052633
232,939.5587076438142,0.046052631578947345
233,942.3561859732072,0.046052631578947345
234,942.3561859732072,0.052631578947368474
235,945.1536643026006,0.052631578947368474
236,947.9511426319937,0.052631578947368474
237,950.7486209613871,0.052631578947368474
238,953.5460992907801,0.052631578947368474
239,953.5460992907801,0.05921052631578949
240,953.5460992907801,0.06578947368421051
241,956.3435776201732,0.06578947368421051
242,956.3435776201732,0.07236842105263153
243,959.1410559495666,0.07236842105263153
244,959.1410559495666,0.07894736842105265
245,961.9385342789597,0.08552631578947367
246,961.9385342789597,0.07894736842105265
247,964.7360126083531,0.08552631578947367
248,964.7360126083531,0.07894736842105265
249,967.5334909377461,0.07236842105263153
250,967.5334909377461,0.07894736842105265
251,970.3309692671396,0.07236842105263153
252,973.1284475965326,0.07236842105263153
253,975.9259259259261,0.07236842105263153
254,978.7234042553191,0.07236842105263153
255,981.5208825847126,0.07236842105263153
256,984.3183609141056,0.07236842105263153
257,987.1158392434986,0.06578947368421051
258,987.1158392434986,0.07236842105263153
259,989.9133175728921,0.06578947368421051
260,989.9133175728921,0.07236842105263153
261,992.7107959022851,0.07236842105263153
262,995.5082742316786,0.07236842105263153
263,998.3057525610716,0.07236842105263153
264,1001.103230890465,0.07894736842105265
265,1001.103230890465,0.07236842105263153
266,1003.9007092198581,0.07894736842105265
267,1006.6981875492515,0.07894736842105265
268,1006.6981875492515,0.08552631578947367
269,1009.4956658786446,0.08552631578947367
270,1012.293144208038,0.08552631578947367
271,1012.293144208038,0.09210526315789469
272,1015.090622537431,0.09210526315789469
273,1017.8881008668241,0.09210526315789469
274,1017.8881008668241,0.09868421052631582
275,1020.6855791962175,0.09868421052631582
276,1023.4830575256105,0.10526315789473684
277,1023.4830575256105,0.09868421052631582
278,1026.280535855004,0.11184210526315785
279,1026.280535855004,0.10526315789473684
280,1029.078014184397,0.125
281,1029.078014184397,0.11184210526315785
282,1029.078014184397,0.11842105263157898
283,1031.8754925137905,0.13157894736842102
284,1031.8754925137905,0.125
285,1034.6729708431835,0.15131578947368418
286,1034.6729708431835,0.13157894736842102
287,1034.6729708431835,0.14473684210526316
288,1034.6729708431835,0.13815789473684215
289,1037.470449172577,0.15131578947368418
290,1040.26792750197,0.15131578947368418
291,1043.0654058313635,0.1578947368421053
292,1043.0654058313635,0.15131578947368418
293,1045.8628841607565,0.16447368421052633
294,1045.8628841607565,0.1578947368421053
295,1048.6603624901495,0.16447368421052633
296,1048.6603624901495,0.17763157894736847
297,1048.6603624901495,0.17105263157894735
298,1048.6603624901495,0.1842105263157895
299,1051.457840819543,0.1842105263157895
300,1051.457840819543,0.1907894736842105
301,1054.255319148936,0.19736842105263153
302,1054.255319148936,0.20394736842105265
303,1054.255319148936,0.1907894736842105
304,1054.255319148936,0.21052631578947367
305,1057.0527974783295,0.22368421052631582
306,1057.0527974783295,0.2171052631578947
307,1057.0527974783295,0.21052631578947367
308,1059.8502758077225,0.25
309,1059.8502758077225,0.23684210526315785
310,1059.8502758077225,0.23026315789473684
311,1059.8502758077225,0.22368421052631582
312,1059.8502758077225,0.24342105263157898
313,1059.8502758077225,0.256578947368421
314,1062.647754137116,0.26973684210526316
315,1062.647754137116,0.256578947368421
316,1062.647754137116,0.26315789473684215
317,1062.647754137116,0.2763157894736842
318,1065.445232466509,0.29605263157894735
319,1065.445232466509,0.3092105263157895
320,1065.445232466509,0.3157894736842105
321,1065.445232466509,0.2763157894736842
322,1065.445232466509,0.2894736842105263
323,1065.445232466509,0.3223684210526315
324,1065.445232466509,0.2828947368421053
325,1065.445232466509,0.3026315789473685
326,1065.445232466509,0.32894736842105265
327,1068.2427107959024,0.3355263157894737
328,1068.2427107959024,0.32894736842105265
329,1068.2427107959024,0.3421052631578947
330,1068.2427107959024,0.3486842105263158
331,1071.0401891252955,0.3486842105263158
332,1071.0401891252955,0.35526315789473684
333,1071.0401891252955,0.36184210526315785
334,1071.0401891252955,0.375
335,1071.0401891252955,0.368421052631579
336,1073.837667454689,0.381578947368421
337,1073.837667454689,0.39473684210526316
338,1073.837667454689,0.375
339,1073.837667454689,0.4013157894736842
340,1073.837667454689,0.38815789473684215
341,1073.837667454689,0.4078947368421053
342,1076.635145784082,0.4144736842105263
343,1076.635145784082,0.4078947368421053
344,1079.432624113475,0.4078947368421053
345,1079.432624113475,0.4144736842105263
346,1082.2301024428684,0.4013157894736842
347,1082.2301024428684,0.4078947368421053
348,1085.0275807722614,0.4013157894736842
349,1085.0275807722614,0.39473684210526316
350,1085.0275807722614,0.38815789473684215
351,1085.0275807722614,0.381578947368421
352,1087.825059101655,0.375
353,1087.825059101655,0.368421052631579
354,1087.825059101655,0.381578947368421
355,1090.622537431048,0.35526315789473684
356,1090.622537431048,0.368421052631579
357,1090.622537431048,0.36184210526315785
358,1093.4200157604414,0.35526315789473684
359,1096.2174940898344,0.35526315789473684
360,1096.2174940898344,0.36184210526315785
361,1099.014972419228,0.36184210526315785
362,1099.014972419228,0.368421052631579
363,1101.812450748621,0.375
364,1101.812450748621,0.368421052631579
365,1101.812450748621,0.381578947368421
366,1104.6099290780144,0.4078947368421053
367,1104.6099290780144,0.4013157894736842
368,1104.6099290780144,0.381578947368421
369,1104.6099290780144,0.39473684210526316
370,1104.6099290780144,0.38815789473684215
371,1107.4074074074074,0.42105263157894735
372,1107.4074074074074,0.4078947368421053
373,1107.4074074074074,0.4144736842105263
374,1110.2048857368004,0.4407894736842105
375,1110.2048857368004,0.42105263157894735
376,1110.2048857368004,0.4342105263157895
377,1110.2048857368004,0.4276315789473685
378,1113.0023640661939,0.4407894736842105
379,1115.799842395587,0.4342105263157895
380,1115.799842395587,0.4276315789473685
381,1115.799842395587,0.4407894736842105
382,1118.5973207249804,0.42105263157894735
383,1118.5973207249804,0.4144736842105263
384,1118.5973207249804,0.4276315789473685
385,1121.3947990543734,0.381578947368421
386,1121.3947990543734,0.38815789473684215
387,1121.3947990543734,0.4013157894736842
388,1121.3947990543734,0.4078947368421053
389,1121.3947990543734,0.4144736842105263
390,1121.3947990543734,0.375
391,1121.3947990543734,0.39473684210526316
392,1124.1922773837669,0.375
393,1124.1922773837669,0.368421052631579
394,1124.1922773837669,0.36184210526315785
395,1126.9897557131599,0.36184210526315785
396,1126.9897557131599,0.3421052631578947
397,1126.9897557131599,0.35526315789473684
398,1126.9897557131599,0.3486842105263158
399,1129.7872340425533,0.3421052631578947
400,1129.7872340425533,0.3355263157894737
401,1129.7872340425533,0.32894736842105265
402,1132.5847123719464,0.3223684210526315
403,1132.5847123719464,0.32894736842105265
404,1132.5847123719464,0.3157894736842105
405,1135.3821907013398,0.3092105263157895
406,1135.3821907013398,0.3026315789473685
407,1135.3821907013398,0.3157894736842105
408,1138.1796690307328,0.3026315789473685
409,1138.1796690307328,0.29605263157894735
410,1138.1796690307328,0.2828947368421053
411,1138.1796690307328,0.2894736842105263
412,1140.9771473601263,0.2828947368421053
413,1140.9771473601263,0.25
414,1140.9771473601263,0.256578947368421
415,1140.9771473601263,0.2763157894736842
416,1140.9771473601263,0.26973684210526316
417,1140.9771473601263,0.24342105263157898
418,1140.9771473601263,0.26315789473684215
419,1143.7746256895193,0.24342105263157898
420,1143.7746256895193,0.22368421052631582
421,1143.7746256895193,0.23026315789473684
422,1143.7746256895193,0.23684210526315785
423,1146.5721040189123,0.19736842105263153
424,1146.5721040189123,0.21052631578947367
425,1146.5721040189123,0.2171052631578947
426,1146.5721040189123,0.20394736842105265
427,1146.5721040189123,0.22368421052631582
428,1149.3695823483058,0.19736842105263153
429,1149.3695823483058,0.1907894736842105
430,1152.1670606776988,0.1907894736842105
431,1152.1670606776988,0.1842105263157895
432,1154.9645390070923,0.1842105263157895
433,1157.7620173364853,0.1842105263157895
434,1160.5594956658788,0.1842105263157895
435,1163.3569739952718,0.17763157894736847
436,1163.3569739952718,0.1842105263157895
437,1166.1544523246653,0.17105263157894735
438,1166.1544523246653,0.17763157894736847
439,1166.1544523246653,0.16447368421052633
440,1168.9519306540583,0.16447368421052633
441,1171.7494089834518,0.16447368421052633
442,1171.7494089834518,0.1578947368421053
443,1174.5468873128448,0.15131578947368418
444,1174.5468873128448,0.1578947368421053
445,1177.3443656422378,0.14473684210526316
446,1177.3443656422378,0.15131578947368418
447,1180.1418439716313,0.14473684210526316
448,1180.1418439716313,0.13815789473684215
449,1182.9393223010243,0.13815789473684215
450,1182.9393223010243,0.13157894736842102
451,1185.7368006304177,0.125
452,1185.7368006304177,0.11842105263157898
453,1185.7368006304177,0.13157894736842102
454,1188.5342789598108,0.11842105263157898
455,1191.3317572892042,0.11842105263157898
456,1191.3317572892042,0.11184210526315785
457,1194.1292356185972,0.11184210526315785
458,1196.9267139479907,0.10526315789473684
459,1196.9267139479907,0.11184210526315785
460,1199.7241922773837,0.10526315789473684
461,1202.5216706067772,0.09868421052631582
462,1202.5216706067772,0.10526315789473684
463,1205.3191489361702,0.09868421052631582
464,1208.1166272655632,0.09868421052631582
465,1210.9141055949567,0.09868421052631582
466,1213.7115839243497,0.09868421052631582
