,wavenumbers,absorbance
0,452.797478329393,0.052631578947368474
1,455.5949566587865,0.052631578947368474
2,458.3924349881795,0.052631578947368474
3,461.189913317573,0.052631578947368474
4,463.987391646966,0.052631578947368474
5,466.78486997635946,0.052631578947368474
6,469.5823483057525,0.052631578947368474
7,472.37982663514595,0.052631578947368474
8,475.17730496453896,0.052631578947368474
9,477.97478329393243,0.052631578947368474
10,480.77226162332545,0.052631578947368474
11,483.56973995271846,0.052631578947368474
12,486.36721828211193,0.052631578947368474
13,489.16469661150495,0.052631578947368474
14,491.9621749408984,0.052631578947368474
15,494.75965327029144,0.05921052631578949
16,494.75965327029144,0.052631578947368474
17,497.5571315996849,0.05921052631578949
18,500.3546099290779,0.07236842105263153
19,500.3546099290779,0.06578947368421051
20,500.3546099290779,0.05921052631578949
21,503.1520882584714,0.07236842105263153
22,505.9495665878644,0.07236842105263153
23,508.7470449172579,0.06578947368421051
24,508.7470449172579,0.07236842105263153
25,508.7470449172579,0.05921052631578949
26,511.5445232466509,0.05921052631578949
27,514.3420015760439,0.05921052631578949
28,514.3420015760439,0.052631578947368474
29,514.3420015760439,0.046052631578947345
30,517.1394799054374,0.046052631578947345
31,519.9369582348304,0.03947368421052633
32,519.9369582348304,0.046052631578947345
33,522.7344365642239,0.03947368421052633
34,525.5319148936169,0.03289473684210531
35,525.5319148936169,0.03947368421052633
36,528.3293932230104,0.03289473684210531
37,531.1268715524034,0.03289473684210531
38,533.9243498817968,0.03289473684210531
39,533.9243498817968,0.02631578947368418
40,536.7218282111899,0.02631578947368418
41,539.5193065405833,0.013157894736842146
42,539.5193065405833,0.02631578947368418
43,539.5193065405833,0.019736842105263164
44,542.3167848699763,0.013157894736842146
45,542.3167848699763,0.019736842105263164
46,545.1142631993694,0.019736842105263164
47,547.9117415287628,0.019736842105263164
48,550.7092198581558,0.019736842105263164
49,553.5066981875493,0.019736842105263164
50,556.3041765169423,0.02631578947368418
51,556.3041765169423,0.019736842105263164
52,559.1016548463358,0.02631578947368418
53,561.8991331757288,0.02631578947368418
54,564.6966115051223,0.02631578947368418
55,567.4940898345153,0.02631578947368418
56,570.2915681639088,0.02631578947368418
57,573.0890464933018,0.03289473684210531
58,573.0890464933018,0.02631578947368418
59,575.8865248226948,0.03289473684210531
60,578.6840031520883,0.03289473684210531
61,581.4814814814813,0.03289473684210531
62,584.2789598108748,0.03289473684210531
63,587.0764381402678,0.03289473684210531
64,589.8739164696613,0.03289473684210531
65,589.8739164696613,0.02631578947368418
66,592.6713947990543,0.02631578947368418
67,595.4688731284477,0.02631578947368418
68,595.4688731284477,0.03289473684210531
69,598.2663514578408,0.03289473684210531
70,601.0638297872342,0.03289473684210531
71,603.8613081166272,0.03289473684210531
72,606.6587864460207,0.03947368421052633
73,606.6587864460207,0.03289473684210531
74,609.4562647754137,0.03947368421052633
75,609.4562647754137,0.046052631578947345
76,612.2537431048067,0.046052631578947345
77,612.2537431048067,0.052631578947368474
78,615.0512214342002,0.05921052631578949
79,615.0512214342002,0.052631578947368474
80,617.8486997635932,0.05921052631578949
81,620.6461780929867,0.046052631578947345
82,620.6461780929867,0.052631578947368474
83,620.6461780929867,0.05921052631578949
84,623.4436564223797,0.046052631578947345
85,623.4436564223797,0.03947368421052633
86,626.2411347517732,0.03947368421052633
87,629.0386130811662,0.03947368421052633
88,631.8360914105597,0.046052631578947345
89,631.8360914105597,0.03947368421052633
90,634.6335697399527,0.046052631578947345
91,637.4310480693462,0.03947368421052633
92,637.4310480693462,0.046052631578947345
93,640.2285263987392,0.03289473684210531
94,640.2285263987392,0.03947368421052633
95,643.0260047281322,0.03289473684210531
96,645.8234830575257,0.03289473684210531
97,648.6209613869187,0.03289473684210531
98,648.6209613869187,0.03947368421052633
99,651.4184397163122,0.03947368421052633
100,654.2159180457052,0.03947368421052633
101,657.0133963750986,0.03947368421052633
102,659.8108747044917,0.03947368421052633
103,659.8108747044917,0.03289473684210531
104,662.6083530338851,0.03947368421052633
105,662.6083530338851,0.03289473684210531
106,665.4058313632781,0.03947368421052633
107,668.2033096926716,0.03947368421052633
108,668.2033096926716,0.03289473684210531
109,671.0007880220646,0.03289473684210531
110,673.7982663514576,0.03289473684210531
111,676.5957446808511,0.03289473684210531
112,679.3932230102441,0.03289473684210531
113,682.1907013396376,0.03289473684210531
114,684.9881796690306,0.03289473684210531
115,687.7856579984241,0.03289473684210531
116,690.5831363278171,0.03289473684210531
117,690.5831363278171,0.03947368421052633
118,693.3806146572106,0.03289473684210531
119,693.3806146572106,0.03947368421052633
120,696.1780929866036,0.03289473684210531
121,698.9755713159971,0.03289473684210531
122,698.9755713159971,0.02631578947368418
123,701.7730496453901,0.02631578947368418
124,701.7730496453901,0.019736842105263164
125,704.5705279747831,0.019736842105263164
126,707.3680063041766,0.019736842105263164
127,710.1654846335696,0.019736842105263164
128,712.962962962963,0.019736842105263164
129,715.7604412923561,0.019736842105263164
130,718.5579196217495,0.02631578947368418
131,718.5579196217495,0.019736842105263164
132,721.3553979511425,0.02631578947368418
133,721.3553979511425,0.03289473684210531
134,721.3553979511425,0.03947368421052633
135,724.152876280536,0.06578947368421051
136,724.152876280536,0.07236842105263153
137,724.152876280536,0.03947368421052633
138,724.152876280536,0.052631578947368474
139,724.152876280536,0.05921052631578949
140,724.152876280536,0.046052631578947345
141,726.950354609929,0.09868421052631582
142,726.950354609929,0.07894736842105265
143,726.950354609929,0.09210526315789469
144,726.950354609929,0.08552631578947367
145,726.950354609929,0.07236842105263153
146,729.7478329393225,0.10526315789473684
147,729.7478329393225,0.13157894736842102
148,729.7478329393225,0.125
149,729.7478329393225,0.11842105263157898
150,729.7478329393225,0.09868421052631582
151,729.7478329393225,0.11184210526315785
152,732.5453112687155,0.17105263157894735
153,732.5453112687155,0.1578947368421053
154,732.5453112687155,0.17763157894736847
155,732.5453112687155,0.15131578947368418
156,732.5453112687155,0.14473684210526316
157,732.5453112687155,0.13157894736842102
158,732.5453112687155,0.16447368421052633
159,732.5453112687155,0.13815789473684215
160,735.3427895981085,0.17763157894736847
161,735.3427895981085,0.1842105263157895
162,735.3427895981085,0.1907894736842105
163,738.140267927502,0.17763157894736847
164,738.140267927502,0.1907894736842105
165,738.140267927502,0.1842105263157895
166,740.937746256895,0.17763157894736847
167,743.7352245862885,0.1842105263157895
168,743.7352245862885,0.17763157894736847
169,746.5327029156815,0.1842105263157895
170,749.330181245075,0.1907894736842105
171,749.330181245075,0.1842105263157895
172,749.330181245075,0.19736842105263153
173,752.127659574468,0.19736842105263153
174,754.9251379038615,0.19736842105263153
175,754.9251379038615,0.1907894736842105
176,757.7226162332545,0.1907894736842105
177,760.520094562648,0.1907894736842105
178,760.520094562648,0.1842105263157895
179,763.317572892041,0.17105263157894735
180,763.317572892041,0.17763157894736847
181,763.317572892041,0.1842105263157895
182,766.115051221434,0.16447368421052633
183,766.115051221434,0.17105263157894735
184,768.9125295508275,0.16447368421052633
185,768.9125295508275,0.1578947368421053
186,771.7100078802205,0.1578947368421053
187,774.507486209614,0.1578947368421053
188,777.304964539007,0.1578947368421053
189,777.304964539007,0.16447368421052633
190,780.1024428684004,0.16447368421052633
191,780.1024428684004,0.1578947368421053
192,782.8999211977934,0.1578947368421053
193,785.6973995271869,0.15131578947368418
194,785.6973995271869,0.1578947368421053
195,788.4948778565799,0.14473684210526316
196,788.4948778565799,0.13157894736842102
197,788.4948778565799,0.13815789473684215
198,788.4948778565799,0.15131578947368418
199,791.2923561859734,0.11842105263157898
200,791.2923561859734,0.125
201,791.2923561859734,0.13157894736842102
202,794.0898345153664,0.10526315789473684
203,794.0898345153664,0.11184210526315785
204,794.0898345153664,0.11842105263157898
205,796.8873128447594,0.10526315789473684
206,799.6847911741529,0.10526315789473684
207,799.6847911741529,0.09868421052631582
208,802.4822695035459,0.09868421052631582
209,805.2797478329394,0.09210526315789469
210,805.2797478329394,0.08552631578947367
211,805.2797478329394,0.09868421052631582
212,808.0772261623324,0.08552631578947367
213,808.0772261623324,0.07894736842105265
214,810.8747044917259,0.06578947368421051
215,810.8747044917259,0.07236842105263153
216,810.8747044917259,0.07894736842105265
217,813.6721828211189,0.05921052631578949
218,813.6721828211189,0.06578947368421051
219,816.4696611505124,0.05921052631578949
220,819.2671394799054,0.06578947368421051
221,819.2671394799054,0.05921052631578949
222,819.2671394799054,0.07236842105263153
223,822.0646178092989,0.07236842105263153
224,822.0646178092989,0.07894736842105265
225,824.8620961386919,0.08552631578947367
226,824.8620961386919,0.09868421052631582
227,824.8620961386919,0.09210526315789469
228,824.8620961386919,0.07894736842105265
229,827.6595744680849,0.11184210526315785
230,827.6595744680849,0.09868421052631582
231,827.6595744680849,0.10526315789473684
232,827.6595744680849,0.11842105263157898
233,830.4570527974784,0.125
234,830.4570527974784,0.13815789473684215
235,830.4570527974784,0.14473684210526316
236,830.4570527974784,0.15131578947368418
237,830.4570527974784,0.16447368421052633
238,830.4570527974784,0.13157894736842102
239,830.4570527974784,0.1578947368421053
240,830.4570527974784,0.11842105263157898
241,833.2545311268714,0.16447368421052633
242,833.2545311268714,0.17105263157894735
243,833.2545311268714,0.1842105263157895
244,833.2545311268714,0.1907894736842105
245,833.2545311268714,0.17763157894736847
246,836.0520094562648,0.1907894736842105
247,836.0520094562648,0.21052631578947367
248,836.0520094562648,0.2171052631578947
249,836.0520094562648,0.19736842105263153
250,836.0520094562648,0.20394736842105265
251,836.0520094562648,0.23026315789473684
252,836.0520094562648,0.22368421052631582
253,838.8494877856579,0.24342105263157898
254,838.8494877856579,0.25
255,838.8494877856579,0.23026315789473684
256,838.8494877856579,0.23684210526315785
257,841.6469661150513,0.26973684210526316
258,841.6469661150513,0.256578947368421
259,841.6469661150513,0.25
260,841.6469661150513,0.26315789473684215
261,841.6469661150513,0.29605263157894735
262,841.6469661150513,0.2828947368421053
263,841.6469661150513,0.2894736842105263
264,841.6469661150513,0.2763157894736842
265,844.4444444444443,0.32894736842105265
266,844.4444444444443,0.29605263157894735
267,844.4444444444443,0.3026315789473685
268,844.4444444444443,0.3223684210526315
269,844.4444444444443,0.3157894736842105
270,844.4444444444443,0.3092105263157895
271,847.2419227738378,0.3486842105263158
272,847.2419227738378,0.32894736842105265
273,847.2419227738378,0.3355263157894737
274,847.2419227738378,0.35526315789473684
275,847.2419227738378,0.3421052631578947
276,850.0394011032308,0.3421052631578947
277,850.0394011032308,0.3486842105263158
278,850.0394011032308,0.35526315789473684
279,850.0394011032308,0.3355263157894737
280,852.8368794326243,0.3223684210526315
281,852.8368794326243,0.3092105263157895
282,852.8368794326243,0.3157894736842105
283,852.8368794326243,0.32894736842105265
284,852.8368794326243,0.3355263157894737
285,852.8368794326243,0.3026315789473685
286,855.6343577620173,0.24342105263157898
287,855.6343577620173,0.22368421052631582
288,855.6343577620173,0.25
289,855.6343577620173,0.2894736842105263
290,855.6343577620173,0.23684210526315785
291,855.6343577620173,0.256578947368421
292,855.6343577620173,0.2828947368421053
293,855.6343577620173,0.2763157894736842
294,855.6343577620173,0.23026315789473684
295,855.6343577620173,0.29605263157894735
296,855.6343577620173,0.3026315789473685
297,855.6343577620173,0.26315789473684215
298,855.6343577620173,0.26973684210526316
299,858.4318360914103,0.1907894736842105
300,858.4318360914103,0.19736842105263153
301,858.4318360914103,0.2171052631578947
302,858.4318360914103,0.22368421052631582
303,858.4318360914103,0.21052631578947367
304,858.4318360914103,0.20394736842105265
305,861.2293144208038,0.17105263157894735
306,861.2293144208038,0.1907894736842105
307,861.2293144208038,0.16447368421052633
308,861.2293144208038,0.17763157894736847
309,861.2293144208038,0.1578947368421053
310,861.2293144208038,0.15131578947368418
311,861.2293144208038,0.1842105263157895
312,864.0267927501968,0.14473684210526316
313,864.0267927501968,0.13815789473684215
314,864.0267927501968,0.13157894736842102
315,864.0267927501968,0.15131578947368418
316,866.8242710795903,0.125
317,866.8242710795903,0.11842105263157898
318,866.8242710795903,0.13157894736842102
319,866.8242710795903,0.11184210526315785
320,869.6217494089833,0.10526315789473684
321,869.6217494089833,0.09868421052631582
322,869.6217494089833,0.11184210526315785
323,872.4192277383768,0.09210526315789469
324,872.4192277383768,0.09868421052631582
325,875.2167060677698,0.07894736842105265
326,875.2167060677698,0.09210526315789469
327,875.2167060677698,0.07236842105263153
328,875.2167060677698,0.06578947368421051
329,875.2167060677698,0.08552631578947367
330,878.0141843971633,0.06578947368421051
331,878.0141843971633,0.05921052631578949
332,880.8116627265563,0.046052631578947345
333,880.8116627265563,0.03947368421052633
334,880.8116627265563,0.05921052631578949
335,880.8116627265563,0.03289473684210531
336,880.8116627265563,0.052631578947368474
337,883.6091410559497,0.03289473684210531
338,883.6091410559497,0.02631578947368418
339,886.4066193853428,0.019736842105263164
340,886.4066193853428,0.02631578947368418
341,889.2040977147362,0.019736842105263164
342,892.0015760441293,0.019736842105263164
343,892.0015760441293,0.02631578947368418
344,894.7990543735223,0.02631578947368418
345,894.7990543735223,0.03289473684210531
346,897.5965327029157,0.03289473684210531
347,897.5965327029157,0.046052631578947345
348,897.5965327029157,0.03947368421052633
349,900.3940110323088,0.046052631578947345
350,903.1914893617022,0.046052631578947345
351,905.9889676910952,0.046052631578947345
352,908.7864460204887,0.046052631578947345
353,911.5839243498817,0.052631578947368474
354,911.5839243498817,0.046052631578947345
355,914.3814026792752,0.052631578947368474
356,914.3814026792752,0.05921052631578949
357,917.1788810086682,0.07236842105263153
358,917.1788810086682,0.05921052631578949
359,917.1788810086682,0.06578947368421051
360,919.9763593380617,0.07236842105263153
361,919.9763593380617,0.07894736842105265
362,919.9763593380617,0.08552631578947367
363,922.7738376674547,0.08552631578947367
364,922.7738376674547,0.125
365,922.7738376674547,0.11842105263157898
366,922.7738376674547,0.11184210526315785
367,922.7738376674547,0.10526315789473684
368,922.7738376674547,0.09210526315789469
369,922.7738376674547,0.09868421052631582
370,925.5713159968477,0.13157894736842102
371,925.5713159968477,0.13815789473684215
372,925.5713159968477,0.125
373,925.5713159968477,0.14473684210526316
374,925.5713159968477,0.15131578947368418
375,928.3687943262412,0.17105263157894735
376,928.3687943262412,0.16447368421052633
377,928.3687943262412,0.17763157894736847
378,928.3687943262412,0.15131578947368418
379,928.3687943262412,0.1578947368421053
380,931.1662726556342,0.2171052631578947
381,931.1662726556342,0.22368421052631582
382,931.1662726556342,0.19736842105263153
383,931.1662726556342,0.21052631578947367
384,931.1662726556342,0.17763157894736847
385,931.1662726556342,0.20394736842105265
386,931.1662726556342,0.1907894736842105
387,931.1662726556342,0.1842105263157895
388,933.9637509850277,0.22368421052631582
389,933.9637509850277,0.24342105263157898
390,933.9637509850277,0.23684210526315785
391,933.9637509850277,0.23026315789473684
392,936.7612293144207,0.25
393,936.7612293144207,0.24342105263157898
394,939.5587076438142,0.25
395,942.3561859732072,0.23684210526315785
396,942.3561859732072,0.24342105263157898
397,942.3561859732072,0.23026315789473684
398,942.3561859732072,0.25
399,945.1536643026006,0.23026315789473684
400,945.1536643026006,0.22368421052631582
401,947.9511426319937,0.22368421052631582
402,947.9511426319937,0.2171052631578947
403,950.7486209613871,0.2171052631578947
404,953.5460992907801,0.2171052631578947
405,953.5460992907801,0.23026315789473684
406,953.5460992907801,0.22368421052631582
407,956.3435776201732,0.23026315789473684
408,956.3435776201732,0.23684210526315785
409,959.1410559495666,0.23684210526315785
410,961.9385342789597,0.2171052631578947
411,961.9385342789597,0.23684210526315785
412,961.9385342789597,0.21052631578947367
413,961.9385342789597,0.22368421052631582
414,961.9385342789597,0.23026315789473684
415,964.7360126083531,0.20394736842105265
416,964.7360126083531,0.21052631578947367
417,964.7360126083531,0.19736842105263153
418,967.5334909377461,0.16447368421052633
419,967.5334909377461,0.17763157894736847
420,967.5334909377461,0.19736842105263153
421,967.5334909377461,0.1907894736842105
422,967.5334909377461,0.17105263157894735
423,967.5334909377461,0.1842105263157895
424,970.3309692671396,0.1578947368421053
425,970.3309692671396,0.16447368421052633
426,973.1284475965326,0.1578947368421053
427,975.9259259259261,0.1578947368421053
428,978.7234042553191,0.17105263157894735
429,978.7234042553191,0.16447368421052633
430,978.7234042553191,0.1578947368421053
431,981.5208825847126,0.1842105263157895
432,981.5208825847126,0.17763157894736847
433,981.5208825847126,0.17105263157894735
434,984.3183609141056,0.19736842105263153
435,984.3183609141056,0.1907894736842105
436,984.3183609141056,0.1842105263157895
437,987.1158392434986,0.19736842105263153
438,987.1158392434986,0.23026315789473684
439,987.1158392434986,0.21052631578947367
440,987.1158392434986,0.22368421052631582
441,987.1158392434986,0.23684210526315785
442,987.1158392434986,0.2171052631578947
443,987.1158392434986,0.20394736842105265
444,989.9133175728921,0.23684210526315785
445,989.9133175728921,0.256578947368421
446,989.9133175728921,0.25
447,989.9133175728921,0.24342105263157898
448,992.7107959022851,0.26973684210526316
449,992.7107959022851,0.29605263157894735
450,992.7107959022851,0.2894736842105263
451,992.7107959022851,0.2828947368421053
452,992.7107959022851,0.26315789473684215
453,992.7107959022851,0.256578947368421
454,992.7107959022851,0.2763157894736842
455,995.5082742316786,0.3157894736842105
456,995.5082742316786,0.29605263157894735
457,995.5082742316786,0.3026315789473685
458,995.5082742316786,0.3092105263157895
459,998.3057525610716,0.32894736842105265
460,998.3057525610716,0.381578947368421
461,998.3057525610716,0.36184210526315785
462,998.3057525610716,0.35526315789473684
463,998.3057525610716,0.3486842105263158
464,998.3057525610716,0.3421052631578947
465,998.3057525610716,0.3355263157894737
466,998.3057525610716,0.375
467,998.3057525610716,0.3223684210526315
468,998.3057525610716,0.3157894736842105
469,998.3057525610716,0.368421052631579
470,1001.103230890465,0.381578947368421
471,1001.103230890465,0.42105263157894735
472,1001.103230890465,0.4144736842105263
