,wavenumbers,absorbance
0,452.797478329393,0.02631578947368418
1,452.797478329393,0.03289473684210531
2,455.5949566587865,0.02631578947368418
3,455.5949566587865,0.03289473684210531
4,458.3924349881795,0.03947368421052633
5,458.3924349881795,0.03289473684210531
6,461.189913317573,0.03947368421052633
7,463.987391646966,0.03289473684210531
8,463.987391646966,0.03947368421052633
9,466.78486997635946,0.03289473684210531
10,469.5823483057525,0.03289473684210531
11,472.37982663514595,0.03289473684210531
12,475.17730496453896,0.03289473684210531
13,477.97478329393243,0.03289473684210531
14,480.77226162332545,0.03289473684210531
15,483.56973995271846,0.03289473684210531
16,486.36721828211193,0.03289473684210531
17,489.16469661150495,0.03289473684210531
18,491.9621749408984,0.03289473684210531
19,494.75965327029144,0.03289473684210531
20,497.5571315996849,0.03289473684210531
21,500.3546099290779,0.03289473684210531
22,503.1520882584714,0.03289473684210531
23,503.1520882584714,0.02631578947368418
24,505.9495665878644,0.02631578947368418
25,508.7470449172579,0.02631578947368418
26,511.5445232466509,0.02631578947368418
27,514.3420015760439,0.02631578947368418
28,517.1394799054374,0.02631578947368418
29,519.9369582348304,0.02631578947368418
30,519.9369582348304,0.03289473684210531
31,522.7344365642239,0.03289473684210531
32,525.5319148936169,0.03289473684210531
33,528.3293932230104,0.03289473684210531
34,531.1268715524034,0.03289473684210531
35,531.1268715524034,0.02631578947368418
36,533.9243498817968,0.02631578947368418
37,536.7218282111899,0.02631578947368418
38,539.5193065405833,0.02631578947368418
39,542.3167848699763,0.02631578947368418
40,545.1142631993694,0.02631578947368418
41,547.9117415287628,0.02631578947368418
42,550.7092198581558,0.02631578947368418
43,553.5066981875493,0.02631578947368418
44,556.3041765169423,0.02631578947368418
45,559.1016548463358,0.02631578947368418
46,561.8991331757288,0.02631578947368418
47,564.6966115051223,0.02631578947368418
48,567.4940898345153,0.02631578947368418
49,570.2915681639088,0.02631578947368418
50,573.0890464933018,0.019736842105263164
51,573.0890464933018,0.02631578947368418
52,575.8865248226948,0.019736842105263164
53,578.6840031520883,0.019736842105263164
54,581.4814814814813,0.019736842105263164
55,584.2789598108748,0.019736842105263164
56,587.0764381402678,0.019736842105263164
57,589.8739164696613,0.019736842105263164
58,592.6713947990543,0.019736842105263164
59,595.4688731284477,0.019736842105263164
60,598.2663514578408,0.019736842105263164
61,601.0638297872342,0.019736842105263164
62,603.8613081166272,0.019736842105263164
63,603.8613081166272,0.02631578947368418
64,606.6587864460207,0.02631578947368418
65,609.4562647754137,0.02631578947368418
66,612.2537431048067,0.02631578947368418
67,615.0512214342002,0.02631578947368418
68,617.8486997635932,0.02631578947368418
69,620.6461780929867,0.02631578947368418
70,623.4436564223797,0.02631578947368418
71,626.2411347517732,0.02631578947368418
72,629.0386130811662,0.02631578947368418
73,631.8360914105597,0.02631578947368418
74,634.6335697399527,0.02631578947368418
75,637.4310480693462,0.02631578947368418
76,637.4310480693462,0.019736842105263164
77,640.2285263987392,0.019736842105263164
78,640.2285263987392,0.02631578947368418
79,643.0260047281322,0.02631578947368418
80,645.8234830575257,0.02631578947368418
81,648.6209613869187,0.02631578947368418
82,651.4184397163122,0.02631578947368418
83,654.2159180457052,0.02631578947368418
84,657.0133963750986,0.02631578947368418
85,657.0133963750986,0.03289473684210531
86,659.8108747044917,0.03289473684210531
87,662.6083530338851,0.03289473684210531
88,665.4058313632781,0.03289473684210531
89,668.2033096926716,0.03289473684210531
90,671.0007880220646,0.03289473684210531
91,673.7982663514576,0.03289473684210531
92,673.7982663514576,0.02631578947368418
93,676.5957446808511,0.02631578947368418
94,679.3932230102441,0.02631578947368418
95,682.1907013396376,0.02631578947368418
96,684.9881796690306,0.02631578947368418
97,687.7856579984241,0.02631578947368418
98,690.5831363278171,0.02631578947368418
99,693.3806146572106,0.02631578947368418
100,696.1780929866036,0.02631578947368418
101,698.9755713159971,0.02631578947368418
102,701.7730496453901,0.02631578947368418
103,704.5705279747831,0.02631578947368418
104,707.3680063041766,0.02631578947368418
105,710.1654846335696,0.02631578947368418
106,712.962962962963,0.02631578947368418
107,715.7604412923561,0.02631578947368418
108,718.5579196217495,0.02631578947368418
109,721.3553979511425,0.02631578947368418
110,724.152876280536,0.02631578947368418
111,726.950354609929,0.02631578947368418
112,729.7478329393225,0.02631578947368418
113,732.5453112687155,0.02631578947368418
114,735.3427895981085,0.02631578947368418
115,738.140267927502,0.02631578947368418
116,740.937746256895,0.02631578947368418
117,743.7352245862885,0.02631578947368418
118,746.5327029156815,0.02631578947368418
119,749.330181245075,0.02631578947368418
120,752.127659574468,0.02631578947368418
121,754.9251379038615,0.02631578947368418
122,757.7226162332545,0.02631578947368418
123,760.520094562648,0.02631578947368418
124,763.317572892041,0.02631578947368418
125,766.115051221434,0.02631578947368418
126,768.9125295508275,0.02631578947368418
127,771.7100078802205,0.02631578947368418
128,774.507486209614,0.02631578947368418
129,777.304964539007,0.02631578947368418
130,780.1024428684004,0.02631578947368418
131,782.8999211977934,0.02631578947368418
132,785.6973995271869,0.02631578947368418
133,788.4948778565799,0.02631578947368418
134,791.2923561859734,0.02631578947368418
135,791.2923561859734,0.03289473684210531
136,794.0898345153664,0.03289473684210531
137,794.0898345153664,0.03947368421052633
138,796.8873128447594,0.03947368421052633
139,796.8873128447594,0.046052631578947345
140,799.6847911741529,0.08552631578947367
141,799.6847911741529,0.07894736842105265
142,799.6847911741529,0.09210526315789469
143,799.6847911741529,0.052631578947368474
144,799.6847911741529,0.07236842105263153
145,799.6847911741529,0.05921052631578949
146,799.6847911741529,0.046052631578947345
147,799.6847911741529,0.06578947368421051
148,802.4822695035459,0.14473684210526316
149,802.4822695035459,0.11184210526315785
150,802.4822695035459,0.09868421052631582
151,802.4822695035459,0.13157894736842102
152,802.4822695035459,0.09210526315789469
153,802.4822695035459,0.10526315789473684
154,802.4822695035459,0.13815789473684215
155,802.4822695035459,0.11842105263157898
156,802.4822695035459,0.125
157,802.4822695035459,0.15131578947368418
158,805.2797478329394,0.16447368421052633
159,805.2797478329394,0.2171052631578947
160,805.2797478329394,0.17105263157894735
161,805.2797478329394,0.1842105263157895
162,805.2797478329394,0.19736842105263153
163,805.2797478329394,0.15131578947368418
164,805.2797478329394,0.21052631578947367
165,805.2797478329394,0.1907894736842105
166,805.2797478329394,0.1578947368421053
167,805.2797478329394,0.17763157894736847
168,805.2797478329394,0.20394736842105265
169,805.2797478329394,0.22368421052631582
170,808.0772261623324,0.20394736842105265
171,808.0772261623324,0.21052631578947367
172,808.0772261623324,0.17763157894736847
173,808.0772261623324,0.1907894736842105
174,808.0772261623324,0.22368421052631582
175,808.0772261623324,0.2171052631578947
176,808.0772261623324,0.1842105263157895
177,808.0772261623324,0.17105263157894735
178,808.0772261623324,0.19736842105263153
179,810.8747044917259,0.11184210526315785
180,810.8747044917259,0.09210526315789469
181,810.8747044917259,0.09868421052631582
182,810.8747044917259,0.08552631578947367
183,810.8747044917259,0.1578947368421053
184,810.8747044917259,0.15131578947368418
185,810.8747044917259,0.11842105263157898
186,810.8747044917259,0.07236842105263153
187,810.8747044917259,0.13815789473684215
188,810.8747044917259,0.10526315789473684
189,810.8747044917259,0.07894736842105265
190,810.8747044917259,0.14473684210526316
191,810.8747044917259,0.13157894736842102
192,810.8747044917259,0.16447368421052633
193,810.8747044917259,0.17105263157894735
194,810.8747044917259,0.125
195,813.6721828211189,0.052631578947368474
196,813.6721828211189,0.06578947368421051
197,813.6721828211189,0.07236842105263153
198,813.6721828211189,0.05921052631578949
199,816.4696611505124,0.046052631578947345
200,816.4696611505124,0.03947368421052633
201,816.4696611505124,0.052631578947368474
202,819.2671394799054,0.03947368421052633
203,819.2671394799054,0.03289473684210531
204,819.2671394799054,0.02631578947368418
205,822.0646178092989,0.02631578947368418
206,824.8620961386919,0.02631578947368418
207,827.6595744680849,0.02631578947368418
208,827.6595744680849,0.019736842105263164
209,830.4570527974784,0.019736842105263164
210,833.2545311268714,0.019736842105263164
211,836.0520094562648,0.019736842105263164
212,838.8494877856579,0.019736842105263164
213,841.6469661150513,0.019736842105263164
214,844.4444444444443,0.019736842105263164
215,847.2419227738378,0.019736842105263164
216,850.0394011032308,0.019736842105263164
217,852.8368794326243,0.019736842105263164
218,855.6343577620173,0.019736842105263164
219,858.4318360914103,0.019736842105263164
220,861.2293144208038,0.019736842105263164
221,864.0267927501968,0.019736842105263164
222,866.8242710795903,0.019736842105263164
223,869.6217494089833,0.019736842105263164
224,872.4192277383768,0.019736842105263164
225,875.2167060677698,0.019736842105263164
226,878.0141843971633,0.019736842105263164
227,880.8116627265563,0.019736842105263164
228,883.6091410559497,0.019736842105263164
229,886.4066193853428,0.019736842105263164
230,889.2040977147362,0.019736842105263164
231,892.0015760441293,0.019736842105263164
232,894.7990543735223,0.019736842105263164
233,897.5965327029157,0.019736842105263164
234,900.3940110323088,0.019736842105263164
235,900.3940110323088,0.02631578947368418
236,903.1914893617022,0.02631578947368418
237,905.9889676910952,0.02631578947368418
238,908.7864460204887,0.02631578947368418
239,911.5839243498817,0.02631578947368418
240,914.3814026792752,0.02631578947368418
241,917.1788810086682,0.02631578947368418
242,919.9763593380617,0.02631578947368418
243,919.9763593380617,0.019736842105263164
244,922.7738376674547,0.019736842105263164
245,925.5713159968477,0.019736842105263164
246,928.3687943262412,0.019736842105263164
247,928.3687943262412,0.02631578947368418
248,931.1662726556342,0.02631578947368418
249,933.9637509850277,0.02631578947368418
250,936.7612293144207,0.02631578947368418
251,939.5587076438142,0.03289473684210531
252,939.5587076438142,0.02631578947368418
253,942.3561859732072,0.02631578947368418
254,942.3561859732072,0.03289473684210531
255,942.3561859732072,0.03947368421052633
256,945.1536643026006,0.03947368421052633
257,945.1536643026006,0.046052631578947345
258,947.9511426319937,0.046052631578947345
259,947.9511426319937,0.052631578947368474
260,947.9511426319937,0.05921052631578949
261,950.7486209613871,0.06578947368421051
262,950.7486209613871,0.05921052631578949
263,950.7486209613871,0.07236842105263153
264,953.5460992907801,0.10526315789473684
265,953.5460992907801,0.08552631578947367
266,953.5460992907801,0.07894736842105265
267,953.5460992907801,0.07236842105263153
268,953.5460992907801,0.09868421052631582
269,953.5460992907801,0.09210526315789469
270,953.5460992907801,0.11184210526315785
271,956.3435776201732,0.125
272,956.3435776201732,0.11842105263157898
273,956.3435776201732,0.13157894736842102
274,956.3435776201732,0.13815789473684215
275,956.3435776201732,0.11184210526315785
276,959.1410559495666,0.14473684210526316
277,959.1410559495666,0.13815789473684215
278,959.1410559495666,0.15131578947368418
279,961.9385342789597,0.14473684210526316
280,961.9385342789597,0.15131578947368418
281,964.7360126083531,0.13815789473684215
282,964.7360126083531,0.13157894736842102
283,964.7360126083531,0.14473684210526316
284,967.5334909377461,0.13157894736842102
285,967.5334909377461,0.125
286,970.3309692671396,0.125
287,973.1284475965326,0.13157894736842102
288,973.1284475965326,0.14473684210526316
289,973.1284475965326,0.125
290,973.1284475965326,0.15131578947368418
291,973.1284475965326,0.13815789473684215
292,975.9259259259261,0.15131578947368418
293,975.9259259259261,0.17763157894736847
294,975.9259259259261,0.1842105263157895
295,975.9259259259261,0.17105263157894735
296,975.9259259259261,0.1578947368421053
297,975.9259259259261,0.16447368421052633
298,978.7234042553191,0.20394736842105265
299,978.7234042553191,0.1842105263157895
300,978.7234042553191,0.25
301,978.7234042553191,0.22368421052631582
302,978.7234042553191,0.1907894736842105
303,978.7234042553191,0.23026315789473684
304,978.7234042553191,0.24342105263157898
305,978.7234042553191,0.19736842105263153
306,978.7234042553191,0.23684210526315785
307,978.7234042553191,0.2171052631578947
308,978.7234042553191,0.21052631578947367
309,981.5208825847126,0.24342105263157898
310,981.5208825847126,0.23684210526315785
311,981.5208825847126,0.25
312,984.3183609141056,0.23026315789473684
313,984.3183609141056,0.2171052631578947
314,984.3183609141056,0.20394736842105265
315,984.3183609141056,0.22368421052631582
316,984.3183609141056,0.21052631578947367
317,984.3183609141056,0.23684210526315785
318,987.1158392434986,0.20394736842105265
319,987.1158392434986,0.1578947368421053
320,987.1158392434986,0.15131578947368418
321,987.1158392434986,0.1907894736842105
322,987.1158392434986,0.14473684210526316
323,987.1158392434986,0.13815789473684215
324,987.1158392434986,0.19736842105263153
325,987.1158392434986,0.1842105263157895
326,987.1158392434986,0.16447368421052633
327,987.1158392434986,0.17763157894736847
328,987.1158392434986,0.17105263157894735
329,989.9133175728921,0.13815789473684215
330,989.9133175728921,0.13157894736842102
331,989.9133175728921,0.125
332,989.9133175728921,0.11184210526315785
333,989.9133175728921,0.11842105263157898
334,992.7107959022851,0.09210526315789469
335,992.7107959022851,0.08552631578947367
336,992.7107959022851,0.09868421052631582
337,992.7107959022851,0.11184210526315785
338,992.7107959022851,0.10526315789473684
339,995.5082742316786,0.08552631578947367
340,995.5082742316786,0.07894736842105265
341,995.5082742316786,0.07236842105263153
342,998.3057525610716,0.06578947368421051
343,998.3057525610716,0.07236842105263153
344,998.3057525610716,0.05921052631578949
345,1001.103230890465,0.052631578947368474
346,1001.103230890465,0.05921052631578949
347,1003.9007092198581,0.052631578947368474
348,1003.9007092198581,0.046052631578947345
349,1006.6981875492515,0.046052631578947345
350,1009.4956658786446,0.046052631578947345
351,1012.293144208038,0.03947368421052633
352,1012.293144208038,0.046052631578947345
353,1015.090622537431,0.03947368421052633
354,1017.8881008668241,0.03947368421052633
355,1017.8881008668241,0.046052631578947345
356,1020.6855791962175,0.046052631578947345
357,1023.4830575256105,0.046052631578947345
358,1023.4830575256105,0.052631578947368474
359,1026.280535855004,0.052631578947368474
360,1029.078014184397,0.05921052631578949
361,1029.078014184397,0.052631578947368474
362,1031.8754925137905,0.05921052631578949
363,1031.8754925137905,0.06578947368421051
364,1034.6729708431835,0.07236842105263153
365,1034.6729708431835,0.06578947368421051
366,1037.470449172577,0.07236842105263153
367,1037.470449172577,0.07894736842105265
368,1040.26792750197,0.07894736842105265
369,1040.26792750197,0.08552631578947367
370,1040.26792750197,0.09210526315789469
371,1040.26792750197,0.09868421052631582
372,1043.0654058313635,0.10526315789473684
373,1043.0654058313635,0.09868421052631582
374,1043.0654058313635,0.11184210526315785
375,1045.8628841607565,0.125
376,1045.8628841607565,0.11842105263157898
377,1045.8628841607565,0.11184210526315785
378,1048.6603624901495,0.125
379,1048.6603624901495,0.15131578947368418
380,1048.6603624901495,0.1578947368421053
381,1048.6603624901495,0.14473684210526316
382,1048.6603624901495,0.13157894736842102
383,1048.6603624901495,0.13815789473684215
384,1051.457840819543,0.17105263157894735
385,1051.457840819543,0.16447368421052633
386,1051.457840819543,0.1578947368421053
387,1054.255319148936,0.1842105263157895
388,1054.255319148936,0.17105263157894735
389,1054.255319148936,0.17763157894736847
390,1057.0527974783295,0.1842105263157895
391,1059.8502758077225,0.17763157894736847
392,1059.8502758077225,0.17105263157894735
393,1059.8502758077225,0.1842105263157895
394,1059.8502758077225,0.16447368421052633
395,1062.647754137116,0.15131578947368418
396,1062.647754137116,0.1578947368421053
397,1062.647754137116,0.16447368421052633
398,1065.445232466509,0.125
399,1065.445232466509,0.15131578947368418
400,1065.445232466509,0.11842105263157898
401,1065.445232466509,0.11184210526315785
402,1065.445232466509,0.13157894736842102
403,1065.445232466509,0.13815789473684215
404,1065.445232466509,0.14473684210526316
405,1068.2427107959024,0.11184210526315785
406,1068.2427107959024,0.09868421052631582
407,1068.2427107959024,0.10526315789473684
408,1071.0401891252955,0.09868421052631582
409,1071.0401891252955,0.09210526315789469
410,1071.0401891252955,0.08552631578947367
411,1073.837667454689,0.07894736842105265
412,1073.837667454689,0.06578947368421051
413,1073.837667454689,0.08552631578947367
414,1073.837667454689,0.05921052631578949
415,1073.837667454689,0.07236842105263153
416,1076.635145784082,0.05921052631578949
417,1076.635145784082,0.052631578947368474
418,1079.432624113475,0.046052631578947345
419,1079.432624113475,0.052631578947368474
420,1079.432624113475,0.03947368421052633
421,1082.2301024428684,0.03947368421052633
422,1082.2301024428684,0.03289473684210531
423,1085.0275807722614,0.03289473684210531
424,1085.0275807722614,0.02631578947368418
425,1087.825059101655,0.02631578947368418
426,1087.825059101655,0.019736842105263164
427,1090.622537431048,0.019736842105263164
428,1093.4200157604414,0.019736842105263164
429,1096.2174940898344,0.019736842105263164
430,1099.014972419228,0.019736842105263164
431,1101.812450748621,0.019736842105263164
432,1104.6099290780144,0.019736842105263164
433,1104.6099290780144,0.02631578947368418
434,1107.4074074074074,0.02631578947368418
435,1110.2048857368004,0.02631578947368418
436,1113.0023640661939,0.03289473684210531
437,1113.0023640661939,0.02631578947368418
438,1115.799842395587,0.03289473684210531
439,1115.799842395587,0.02631578947368418
440,1118.5973207249804,0.02631578947368418
441,1121.3947990543734,0.02631578947368418
442,1124.1922773837669,0.02631578947368418
443,1126.9897557131599,0.02631578947368418
444,1129.7872340425533,0.03289473684210531
445,1129.7872340425533,0.02631578947368418
446,1132.5847123719464,0.03289473684210531
447,1135.3821907013398,0.03289473684210531
448,1138.1796690307328,0.03289473684210531
449,1140.9771473601263,0.03289473684210531
450,1140.9771473601263,0.03947368421052633
451,1143.7746256895193,0.03947368421052633
452,1143.7746256895193,0.046052631578947345
453,1146.5721040189123,0.046052631578947345
454,1146.5721040189123,0.052631578947368474
455,1149.3695823483058,0.05921052631578949
456,1149.3695823483058,0.052631578947368474
457,1152.1670606776988,0.05921052631578949
458,1152.1670606776988,0.07236842105263153
459,1152.1670606776988,0.06578947368421051
460,1154.9645390070923,0.07894736842105265
461,1154.9645390070923,0.07236842105263153
462,1157.7620173364853,0.07894736842105265
463,1157.7620173364853,0.08552631578947367
464,1160.5594956658788,0.09210526315789469
465,1160.5594956658788,0.10526315789473684
466,1160.5594956658788,0.08552631578947367
467,1160.5594956658788,0.09868421052631582
