,wavenumbers,absorbance
0,452.797478329393,0.03947368421052633
1,455.5949566587865,0.03947368421052633
2,458.3924349881795,0.03947368421052633
3,458.3924349881795,0.03289473684210531
4,461.189913317573,0.03289473684210531
5,463.987391646966,0.03289473684210531
6,466.78486997635946,0.03289473684210531
7,469.5823483057525,0.02631578947368418
8,469.5823483057525,0.03289473684210531
9,472.37982663514595,0.02631578947368418
10,475.17730496453896,0.03289473684210531
11,475.17730496453896,0.02631578947368418
12,477.97478329393243,0.02631578947368418
13,477.97478329393243,0.03289473684210531
14,480.77226162332545,0.03289473684210531
15,480.77226162332545,0.02631578947368418
16,483.56973995271846,0.03289473684210531
17,486.36721828211193,0.03289473684210531
18,489.16469661150495,0.03289473684210531
19,491.9621749408984,0.03289473684210531
20,494.75965327029144,0.03289473684210531
21,497.5571315996849,0.03289473684210531
22,500.3546099290779,0.03289473684210531
23,503.1520882584714,0.03289473684210531
24,505.9495665878644,0.03289473684210531
25,508.7470449172579,0.03289473684210531
26,511.5445232466509,0.03289473684210531
27,514.3420015760439,0.03289473684210531
28,517.1394799054374,0.03289473684210531
29,519.9369582348304,0.03947368421052633
30,519.9369582348304,0.03289473684210531
31,522.7344365642239,0.03947368421052633
32,525.5319148936169,0.03947368421052633
33,528.3293932230104,0.03947368421052633
34,531.1268715524034,0.03947368421052633
35,533.9243498817968,0.046052631578947345
36,533.9243498817968,0.03947368421052633
37,536.7218282111899,0.046052631578947345
38,539.5193065405833,0.046052631578947345
39,539.5193065405833,0.03947368421052633
40,542.3167848699763,0.03947368421052633
41,545.1142631993694,0.03947368421052633
42,547.9117415287628,0.03947368421052633
43,550.7092198581558,0.03947368421052633
44,550.7092198581558,0.03289473684210531
45,553.5066981875493,0.03289473684210531
46,556.3041765169423,0.03289473684210531
47,559.1016548463358,0.03289473684210531
48,561.8991331757288,0.03289473684210531
49,564.6966115051223,0.03289473684210531
50,564.6966115051223,0.02631578947368418
51,567.4940898345153,0.02631578947368418
52,570.2915681639088,0.02631578947368418
53,573.0890464933018,0.02631578947368418
54,575.8865248226948,0.02631578947368418
55,578.6840031520883,0.02631578947368418
56,581.4814814814813,0.02631578947368418
57,584.2789598108748,0.02631578947368418
58,587.0764381402678,0.02631578947368418
59,589.8739164696613,0.02631578947368418
60,592.6713947990543,0.02631578947368418
61,595.4688731284477,0.02631578947368418
62,598.2663514578408,0.02631578947368418
63,601.0638297872342,0.02631578947368418
64,603.8613081166272,0.02631578947368418
65,606.6587864460207,0.02631578947368418
66,609.4562647754137,0.02631578947368418
67,612.2537431048067,0.02631578947368418
68,615.0512214342002,0.02631578947368418
69,617.8486997635932,0.02631578947368418
70,620.6461780929867,0.02631578947368418
71,623.4436564223797,0.02631578947368418
72,626.2411347517732,0.02631578947368418
73,629.0386130811662,0.02631578947368418
74,631.8360914105597,0.02631578947368418
75,634.6335697399527,0.02631578947368418
76,637.4310480693462,0.02631578947368418
77,640.2285263987392,0.02631578947368418
78,643.0260047281322,0.02631578947368418
79,643.0260047281322,0.019736842105263164
80,645.8234830575257,0.019736842105263164
81,648.6209613869187,0.019736842105263164
82,651.4184397163122,0.019736842105263164
83,654.2159180457052,0.019736842105263164
84,657.0133963750986,0.02631578947368418
85,657.0133963750986,0.019736842105263164
86,659.8108747044917,0.02631578947368418
87,662.6083530338851,0.019736842105263164
88,662.6083530338851,0.02631578947368418
89,665.4058313632781,0.019736842105263164
90,668.2033096926716,0.019736842105263164
91,671.0007880220646,0.019736842105263164
92,673.7982663514576,0.019736842105263164
93,676.5957446808511,0.019736842105263164
94,679.3932230102441,0.02631578947368418
95,679.3932230102441,0.019736842105263164
96,682.1907013396376,0.019736842105263164
97,682.1907013396376,0.02631578947368418
98,684.9881796690306,0.019736842105263164
99,684.9881796690306,0.02631578947368418
100,687.7856579984241,0.03947368421052633
101,687.7856579984241,0.02631578947368418
102,687.7856579984241,0.03289473684210531
103,690.5831363278171,0.03947368421052633
104,690.5831363278171,0.046052631578947345
105,690.5831363278171,0.052631578947368474
106,690.5831363278171,0.05921052631578949
107,693.3806146572106,0.052631578947368474
108,693.3806146572106,0.05921052631578949
109,696.1780929866036,0.08552631578947367
110,696.1780929866036,0.09210526315789469
111,696.1780929866036,0.09868421052631582
112,696.1780929866036,0.06578947368421051
113,696.1780929866036,0.07894736842105265
114,696.1780929866036,0.05921052631578949
115,696.1780929866036,0.07236842105263153
116,698.9755713159971,0.125
117,698.9755713159971,0.11842105263157898
118,698.9755713159971,0.1578947368421053
119,698.9755713159971,0.16447368421052633
120,698.9755713159971,0.11184210526315785
121,698.9755713159971,0.17105263157894735
122,698.9755713159971,0.17763157894736847
123,698.9755713159971,0.1907894736842105
124,698.9755713159971,0.15131578947368418
125,698.9755713159971,0.13157894736842102
126,698.9755713159971,0.19736842105263153
127,698.9755713159971,0.1842105263157895
128,698.9755713159971,0.09868421052631582
129,698.9755713159971,0.14473684210526316
130,698.9755713159971,0.10526315789473684
131,698.9755713159971,0.13815789473684215
132,701.7730496453901,0.19736842105263153
133,701.7730496453901,0.1907894736842105
134,704.5705279747831,0.16447368421052633
135,704.5705279747831,0.1842105263157895
136,704.5705279747831,0.17105263157894735
137,704.5705279747831,0.17763157894736847
138,704.5705279747831,0.1578947368421053
139,704.5705279747831,0.1907894736842105
140,707.3680063041766,0.09210526315789469
141,707.3680063041766,0.1578947368421053
142,707.3680063041766,0.125
143,707.3680063041766,0.08552631578947367
144,707.3680063041766,0.09868421052631582
145,707.3680063041766,0.10526315789473684
146,707.3680063041766,0.11184210526315785
147,707.3680063041766,0.15131578947368418
148,707.3680063041766,0.13157894736842102
149,707.3680063041766,0.13815789473684215
150,707.3680063041766,0.11842105263157898
151,707.3680063041766,0.14473684210526316
152,710.1654846335696,0.07236842105263153
153,710.1654846335696,0.05921052631578949
154,710.1654846335696,0.06578947368421051
155,710.1654846335696,0.07894736842105265
156,712.962962962963,0.05921052631578949
157,712.962962962963,0.046052631578947345
158,712.962962962963,0.052631578947368474
159,715.7604412923561,0.046052631578947345
160,718.5579196217495,0.052631578947368474
161,718.5579196217495,0.046052631578947345
162,721.3553979511425,0.05921052631578949
163,721.3553979511425,0.052631578947368474
164,724.152876280536,0.05921052631578949
165,724.152876280536,0.07894736842105265
166,724.152876280536,0.07236842105263153
167,724.152876280536,0.08552631578947367
168,724.152876280536,0.06578947368421051
169,726.950354609929,0.07894736842105265
170,726.950354609929,0.08552631578947367
171,726.950354609929,0.07236842105263153
172,729.7478329393225,0.07236842105263153
173,729.7478329393225,0.06578947368421051
174,732.5453112687155,0.046052631578947345
175,732.5453112687155,0.06578947368421051
176,732.5453112687155,0.05921052631578949
177,732.5453112687155,0.052631578947368474
178,732.5453112687155,0.03947368421052633
179,735.3427895981085,0.03289473684210531
180,735.3427895981085,0.03947368421052633
181,738.140267927502,0.03289473684210531
182,738.140267927502,0.02631578947368418
183,740.937746256895,0.02631578947368418
184,743.7352245862885,0.03289473684210531
185,743.7352245862885,0.02631578947368418
186,746.5327029156815,0.03289473684210531
187,749.330181245075,0.03289473684210531
188,749.330181245075,0.03947368421052633
189,749.330181245075,0.046052631578947345
190,752.127659574468,0.046052631578947345
191,754.9251379038615,0.052631578947368474
192,754.9251379038615,0.046052631578947345
193,757.7226162332545,0.052631578947368474
194,760.520094562648,0.052631578947368474
195,760.520094562648,0.05921052631578949
196,763.317572892041,0.05921052631578949
197,766.115051221434,0.05921052631578949
198,768.9125295508275,0.06578947368421051
199,768.9125295508275,0.05921052631578949
200,768.9125295508275,0.07236842105263153
201,771.7100078802205,0.07894736842105265
202,771.7100078802205,0.07236842105263153
203,774.507486209614,0.10526315789473684
204,774.507486209614,0.07894736842105265
205,774.507486209614,0.09868421052631582
206,774.507486209614,0.11842105263157898
207,774.507486209614,0.08552631578947367
208,774.507486209614,0.125
209,774.507486209614,0.11184210526315785
210,774.507486209614,0.09210526315789469
211,777.304964539007,0.13157894736842102
212,777.304964539007,0.14473684210526316
213,777.304964539007,0.125
214,777.304964539007,0.13815789473684215
215,780.1024428684004,0.13815789473684215
216,780.1024428684004,0.14473684210526316
217,780.1024428684004,0.13157894736842102
218,782.8999211977934,0.125
219,782.8999211977934,0.13157894736842102
220,782.8999211977934,0.11842105263157898
221,782.8999211977934,0.11184210526315785
222,785.6973995271869,0.09210526315789469
223,785.6973995271869,0.09868421052631582
224,785.6973995271869,0.10526315789473684
225,785.6973995271869,0.11184210526315785
226,788.4948778565799,0.08552631578947367
227,788.4948778565799,0.09210526315789469
228,788.4948778565799,0.07236842105263153
229,788.4948778565799,0.07894736842105265
230,788.4948778565799,0.06578947368421051
231,791.2923561859734,0.05921052631578949
232,791.2923561859734,0.06578947368421051
233,791.2923561859734,0.052631578947368474
234,794.0898345153664,0.052631578947368474
235,794.0898345153664,0.03947368421052633
236,794.0898345153664,0.046052631578947345
237,796.8873128447594,0.03947368421052633
238,796.8873128447594,0.03289473684210531
239,799.6847911741529,0.03289473684210531
240,802.4822695035459,0.03289473684210531
241,805.2797478329394,0.03289473684210531
242,805.2797478329394,0.03947368421052633
243,805.2797478329394,0.046052631578947345
244,808.0772261623324,0.07236842105263153
245,808.0772261623324,0.046052631578947345
246,808.0772261623324,0.05921052631578949
247,808.0772261623324,0.052631578947368474
248,808.0772261623324,0.06578947368421051
249,810.8747044917259,0.07894736842105265
250,810.8747044917259,0.08552631578947367
251,810.8747044917259,0.07236842105263153
252,813.6721828211189,0.08552631578947367
253,813.6721828211189,0.07894736842105265
254,813.6721828211189,0.07236842105263153
255,816.4696611505124,0.052631578947368474
256,816.4696611505124,0.06578947368421051
257,816.4696611505124,0.05921052631578949
258,816.4696611505124,0.07236842105263153
259,819.2671394799054,0.046052631578947345
260,819.2671394799054,0.03289473684210531
261,819.2671394799054,0.052631578947368474
262,819.2671394799054,0.03947368421052633
263,822.0646178092989,0.03289473684210531
264,822.0646178092989,0.02631578947368418
265,824.8620961386919,0.019736842105263164
266,824.8620961386919,0.02631578947368418
267,827.6595744680849,0.019736842105263164
268,827.6595744680849,0.02631578947368418
269,830.4570527974784,0.019736842105263164
270,830.4570527974784,0.02631578947368418
271,833.2545311268714,0.019736842105263164
272,836.0520094562648,0.019736842105263164
273,838.8494877856579,0.019736842105263164
274,841.6469661150513,0.019736842105263164
275,844.4444444444443,0.019736842105263164
276,847.2419227738378,0.019736842105263164
277,850.0394011032308,0.019736842105263164
278,852.8368794326243,0.019736842105263164
279,855.6343577620173,0.019736842105263164
280,858.4318360914103,0.019736842105263164
281,861.2293144208038,0.019736842105263164
282,864.0267927501968,0.019736842105263164
283,864.0267927501968,0.02631578947368418
284,866.8242710795903,0.02631578947368418
285,866.8242710795903,0.03289473684210531
286,869.6217494089833,0.03289473684210531
287,872.4192277383768,0.03289473684210531
288,872.4192277383768,0.03947368421052633
289,875.2167060677698,0.052631578947368474
290,875.2167060677698,0.046052631578947345
291,875.2167060677698,0.03947368421052633
292,878.0141843971633,0.046052631578947345
293,878.0141843971633,0.052631578947368474
294,880.8116627265563,0.03947368421052633
295,880.8116627265563,0.046052631578947345
296,880.8116627265563,0.03289473684210531
297,883.6091410559497,0.02631578947368418
298,883.6091410559497,0.03289473684210531
299,886.4066193853428,0.02631578947368418
300,886.4066193853428,0.019736842105263164
301,889.2040977147362,0.02631578947368418
302,889.2040977147362,0.019736842105263164
303,892.0015760441293,0.03289473684210531
304,892.0015760441293,0.02631578947368418
305,894.7990543735223,0.03289473684210531
306,897.5965327029157,0.03947368421052633
307,897.5965327029157,0.03289473684210531
308,900.3940110323088,0.03947368421052633
309,903.1914893617022,0.03947368421052633
310,905.9889676910952,0.03947368421052633
311,908.7864460204887,0.03947368421052633
312,911.5839243498817,0.03947368421052633
313,914.3814026792752,0.046052631578947345
314,914.3814026792752,0.03947368421052633
315,917.1788810086682,0.046052631578947345
316,919.9763593380617,0.046052631578947345
317,922.7738376674547,0.046052631578947345
318,925.5713159968477,0.052631578947368474
319,925.5713159968477,0.046052631578947345
320,928.3687943262412,0.052631578947368474
321,931.1662726556342,0.05921052631578949
322,931.1662726556342,0.052631578947368474
323,933.9637509850277,0.05921052631578949
324,936.7612293144207,0.05921052631578949
325,939.5587076438142,0.05921052631578949
326,939.5587076438142,0.06578947368421051
327,942.3561859732072,0.06578947368421051
328,942.3561859732072,0.07236842105263153
329,945.1536643026006,0.06578947368421051
330,947.9511426319937,0.05921052631578949
331,947.9511426319937,0.06578947368421051
332,947.9511426319937,0.052631578947368474
333,947.9511426319937,0.046052631578947345
334,950.7486209613871,0.046052631578947345
335,953.5460992907801,0.046052631578947345
336,956.3435776201732,0.046052631578947345
337,959.1410559495666,0.052631578947368474
338,959.1410559495666,0.05921052631578949
339,959.1410559495666,0.046052631578947345
340,961.9385342789597,0.05921052631578949
341,961.9385342789597,0.06578947368421051
342,964.7360126083531,0.06578947368421051
343,964.7360126083531,0.05921052631578949
344,967.5334909377461,0.046052631578947345
345,967.5334909377461,0.052631578947368474
346,967.5334909377461,0.05921052631578949
347,970.3309692671396,0.046052631578947345
348,973.1284475965326,0.046052631578947345
349,975.9259259259261,0.046052631578947345
350,978.7234042553191,0.052631578947368474
351,978.7234042553191,0.06578947368421051
352,978.7234042553191,0.046052631578947345
353,978.7234042553191,0.05921052631578949
354,978.7234042553191,0.07236842105263153
355,981.5208825847126,0.09210526315789469
356,981.5208825847126,0.08552631578947367
357,981.5208825847126,0.07894736842105265
358,981.5208825847126,0.07236842105263153
359,984.3183609141056,0.11842105263157898
360,984.3183609141056,0.11184210526315785
361,984.3183609141056,0.125
362,984.3183609141056,0.09210526315789469
363,984.3183609141056,0.09868421052631582
364,984.3183609141056,0.10526315789473684
365,987.1158392434986,0.13815789473684215
366,987.1158392434986,0.17105263157894735
367,987.1158392434986,0.1907894736842105
368,987.1158392434986,0.125
369,987.1158392434986,0.14473684210526316
370,987.1158392434986,0.17763157894736847
371,987.1158392434986,0.16447368421052633
372,987.1158392434986,0.13157894736842102
373,987.1158392434986,0.15131578947368418
374,987.1158392434986,0.1578947368421053
375,987.1158392434986,0.1842105263157895
376,987.1158392434986,0.19736842105263153
377,989.9133175728921,0.19736842105263153
378,989.9133175728921,0.21052631578947367
379,989.9133175728921,0.2171052631578947
380,989.9133175728921,0.20394736842105265
381,992.7107959022851,0.2171052631578947
382,992.7107959022851,0.20394736842105265
383,992.7107959022851,0.21052631578947367
384,995.5082742316786,0.1907894736842105
385,995.5082742316786,0.20394736842105265
386,995.5082742316786,0.19736842105263153
387,995.5082742316786,0.1842105263157895
388,998.3057525610716,0.16447368421052633
389,998.3057525610716,0.13157894736842102
390,998.3057525610716,0.1578947368421053
391,998.3057525610716,0.15131578947368418
392,998.3057525610716,0.17763157894736847
393,998.3057525610716,0.17105263157894735
394,998.3057525610716,0.1842105263157895
395,998.3057525610716,0.13815789473684215
396,998.3057525610716,0.125
397,998.3057525610716,0.14473684210526316
398,1001.103230890465,0.125
399,1001.103230890465,0.11842105263157898
400,1001.103230890465,0.09868421052631582
401,1001.103230890465,0.10526315789473684
402,1001.103230890465,0.11184210526315785
403,1003.9007092198581,0.07236842105263153
404,1003.9007092198581,0.09868421052631582
405,1003.9007092198581,0.09210526315789469
406,1003.9007092198581,0.07894736842105265
407,1003.9007092198581,0.05921052631578949
408,1003.9007092198581,0.08552631578947367
409,1003.9007092198581,0.06578947368421051
410,1006.6981875492515,0.05921052631578949
411,1006.6981875492515,0.046052631578947345
412,1006.6981875492515,0.052631578947368474
413,1009.4956658786446,0.046052631578947345
414,1009.4956658786446,0.03289473684210531
415,1009.4956658786446,0.03947368421052633
416,1012.293144208038,0.03289473684210531
417,1015.090622537431,0.03947368421052633
418,1015.090622537431,0.03289473684210531
419,1017.8881008668241,0.03947368421052633
420,1017.8881008668241,0.03289473684210531
421,1020.6855791962175,0.03289473684210531
422,1023.4830575256105,0.03289473684210531
423,1026.280535855004,0.03289473684210531
424,1029.078014184397,0.03947368421052633
425,1029.078014184397,0.03289473684210531
426,1031.8754925137905,0.03947368421052633
427,1034.6729708431835,0.03947368421052633
428,1037.470449172577,0.03289473684210531
429,1037.470449172577,0.03947368421052633
430,1040.26792750197,0.03289473684210531
431,1043.0654058313635,0.03289473684210531
432,1045.8628841607565,0.02631578947368418
433,1045.8628841607565,0.03289473684210531
434,1048.6603624901495,0.02631578947368418
435,1051.457840819543,0.02631578947368418
436,1054.255319148936,0.02631578947368418
437,1054.255319148936,0.03289473684210531
438,1057.0527974783295,0.03289473684210531
439,1059.8502758077225,0.03289473684210531
440,1059.8502758077225,0.03947368421052633
441,1062.647754137116,0.03947368421052633
442,1065.445232466509,0.03947368421052633
443,1065.445232466509,0.052631578947368474
444,1065.445232466509,0.046052631578947345
445,1068.2427107959024,0.052631578947368474
446,1071.0401891252955,0.052631578947368474
447,1071.0401891252955,0.05921052631578949
448,1073.837667454689,0.05921052631578949
449,1076.635145784082,0.06578947368421051
450,1076.635145784082,0.05921052631578949
451,1079.432624113475,0.06578947368421051
452,1079.432624113475,0.07236842105263153
453,1082.2301024428684,0.08552631578947367
454,1082.2301024428684,0.07236842105263153
455,1082.2301024428684,0.07894736842105265
456,1085.0275807722614,0.09210526315789469
457,1085.0275807722614,0.08552631578947367
458,1085.0275807722614,0.09868421052631582
459,1087.825059101655,0.09868421052631582
460,1087.825059101655,0.10526315789473684
461,1090.622537431048,0.10526315789473684
462,1093.4200157604414,0.10526315789473684
463,1096.2174940898344,0.11184210526315785
464,1096.2174940898344,0.10526315789473684
465,1096.2174940898344,0.11842105263157898
466,1096.2174940898344,0.125
467,1099.014972419228,0.125
