,wavenumbers,absorbance
0,452.797478329393,0.03947368421052633
1,455.5949566587865,0.03947368421052633
2,458.3924349881795,0.03947368421052633
3,458.3924349881795,0.03289473684210531
4,461.189913317573,0.03289473684210531
5,461.189913317573,0.03947368421052633
6,463.987391646966,0.03289473684210531
7,466.78486997635946,0.03289473684210531
8,469.5823483057525,0.03289473684210531
9,469.5823483057525,0.02631578947368418
10,472.37982663514595,0.02631578947368418
11,475.17730496453896,0.02631578947368418
12,477.97478329393243,0.02631578947368418
13,480.77226162332545,0.019736842105263164
14,480.77226162332545,0.02631578947368418
15,483.56973995271846,0.019736842105263164
16,486.36721828211193,0.019736842105263164
17,489.16469661150495,0.019736842105263164
18,491.9621749408984,0.019736842105263164
19,494.75965327029144,0.019736842105263164
20,497.5571315996849,0.019736842105263164
21,500.3546099290779,0.019736842105263164
22,503.1520882584714,0.019736842105263164
23,505.9495665878644,0.019736842105263164
24,508.7470449172579,0.019736842105263164
25,511.5445232466509,0.019736842105263164
26,514.3420015760439,0.019736842105263164
27,517.1394799054374,0.019736842105263164
28,519.9369582348304,0.019736842105263164
29,522.7344365642239,0.02631578947368418
30,522.7344365642239,0.019736842105263164
31,525.5319148936169,0.02631578947368418
32,525.5319148936169,0.03289473684210531
33,528.3293932230104,0.03289473684210531
34,528.3293932230104,0.03947368421052633
35,531.1268715524034,0.03947368421052633
36,531.1268715524034,0.046052631578947345
37,533.9243498817968,0.05921052631578949
38,533.9243498817968,0.046052631578947345
39,533.9243498817968,0.052631578947368474
40,536.7218282111899,0.05921052631578949
41,539.5193065405833,0.05921052631578949
42,539.5193065405833,0.052631578947368474
43,542.3167848699763,0.052631578947368474
44,545.1142631993694,0.052631578947368474
45,545.1142631993694,0.046052631578947345
46,547.9117415287628,0.046052631578947345
47,550.7092198581558,0.046052631578947345
48,553.5066981875493,0.03947368421052633
49,553.5066981875493,0.046052631578947345
50,556.3041765169423,0.03947368421052633
51,559.1016548463358,0.03947368421052633
52,561.8991331757288,0.03947368421052633
53,564.6966115051223,0.03947368421052633
54,567.4940898345153,0.03947368421052633
55,570.2915681639088,0.03947368421052633
56,570.2915681639088,0.03289473684210531
57,573.0890464933018,0.03289473684210531
58,575.8865248226948,0.03289473684210531
59,578.6840031520883,0.03289473684210531
60,578.6840031520883,0.02631578947368418
61,581.4814814814813,0.02631578947368418
62,581.4814814814813,0.03289473684210531
63,584.2789598108748,0.03289473684210531
64,587.0764381402678,0.02631578947368418
65,587.0764381402678,0.03289473684210531
66,589.8739164696613,0.02631578947368418
67,592.6713947990543,0.02631578947368418
68,595.4688731284477,0.02631578947368418
69,598.2663514578408,0.02631578947368418
70,601.0638297872342,0.02631578947368418
71,603.8613081166272,0.02631578947368418
72,606.6587864460207,0.02631578947368418
73,609.4562647754137,0.02631578947368418
74,612.2537431048067,0.02631578947368418
75,615.0512214342002,0.02631578947368418
76,617.8486997635932,0.02631578947368418
77,620.6461780929867,0.02631578947368418
78,620.6461780929867,0.019736842105263164
79,623.4436564223797,0.019736842105263164
80,626.2411347517732,0.019736842105263164
81,629.0386130811662,0.019736842105263164
82,631.8360914105597,0.019736842105263164
83,634.6335697399527,0.019736842105263164
84,637.4310480693462,0.019736842105263164
85,640.2285263987392,0.02631578947368418
86,640.2285263987392,0.019736842105263164
87,643.0260047281322,0.03289473684210531
88,643.0260047281322,0.02631578947368418
89,645.8234830575257,0.03289473684210531
90,648.6209613869187,0.03289473684210531
91,648.6209613869187,0.03947368421052633
92,651.4184397163122,0.046052631578947345
93,651.4184397163122,0.03947368421052633
94,654.2159180457052,0.052631578947368474
95,654.2159180457052,0.046052631578947345
96,657.0133963750986,0.052631578947368474
97,657.0133963750986,0.06578947368421051
98,657.0133963750986,0.05921052631578949
99,659.8108747044917,0.06578947368421051
100,659.8108747044917,0.07236842105263153
101,659.8108747044917,0.07894736842105265
102,662.6083530338851,0.07894736842105265
103,662.6083530338851,0.09210526315789469
104,662.6083530338851,0.08552631578947367
105,662.6083530338851,0.09868421052631582
106,665.4058313632781,0.11184210526315785
107,665.4058313632781,0.09868421052631582
108,665.4058313632781,0.10526315789473684
109,668.2033096926716,0.13157894736842102
110,668.2033096926716,0.11842105263157898
111,668.2033096926716,0.11184210526315785
112,668.2033096926716,0.125
113,668.2033096926716,0.13815789473684215
114,671.0007880220646,0.13815789473684215
115,671.0007880220646,0.14473684210526316
116,671.0007880220646,0.15131578947368418
117,673.7982663514576,0.1578947368421053
118,673.7982663514576,0.15131578947368418
119,676.5957446808511,0.16447368421052633
120,676.5957446808511,0.1578947368421053
121,679.3932230102441,0.16447368421052633
122,682.1907013396376,0.16447368421052633
123,684.9881796690306,0.16447368421052633
124,684.9881796690306,0.17105263157894735
125,687.7856579984241,0.19736842105263153
126,687.7856579984241,0.1842105263157895
127,687.7856579984241,0.21052631578947367
128,687.7856579984241,0.17763157894736847
129,687.7856579984241,0.22368421052631582
130,687.7856579984241,0.2171052631578947
131,687.7856579984241,0.1907894736842105
132,687.7856579984241,0.17105263157894735
133,687.7856579984241,0.23026315789473684
134,687.7856579984241,0.23684210526315785
135,687.7856579984241,0.20394736842105265
136,690.5831363278171,0.256578947368421
137,690.5831363278171,0.3026315789473685
138,690.5831363278171,0.26315789473684215
139,690.5831363278171,0.23684210526315785
140,690.5831363278171,0.35526315789473684
141,690.5831363278171,0.3421052631578947
142,690.5831363278171,0.368421052631579
143,690.5831363278171,0.3157894736842105
144,690.5831363278171,0.25
145,690.5831363278171,0.2763157894736842
146,690.5831363278171,0.375
147,690.5831363278171,0.24342105263157898
148,690.5831363278171,0.32894736842105265
149,690.5831363278171,0.26973684210526316
150,690.5831363278171,0.36184210526315785
151,690.5831363278171,0.3355263157894737
152,690.5831363278171,0.2828947368421053
153,690.5831363278171,0.3223684210526315
154,690.5831363278171,0.3486842105263158
155,690.5831363278171,0.3092105263157895
156,690.5831363278171,0.2894736842105263
157,690.5831363278171,0.29605263157894735
158,693.3806146572106,0.48684210526315785
159,693.3806146572106,0.4144736842105263
160,693.3806146572106,0.42105263157894735
161,693.3806146572106,0.48026315789473684
162,693.3806146572106,0.5723684210526316
163,693.3806146572106,0.4276315789473685
164,693.3806146572106,0.39473684210526316
165,693.3806146572106,0.4342105263157895
166,693.3806146572106,0.5855263157894737
167,693.3806146572106,0.493421052631579
168,693.3806146572106,0.375
169,693.3806146572106,0.5263157894736843
170,693.3806146572106,0.45394736842105265
171,693.3806146572106,0.5197368421052632
172,693.3806146572106,0.4013157894736842
173,693.3806146572106,0.5328947368421053
174,693.3806146572106,0.4473684210526315
175,693.3806146572106,0.5394736842105263
176,693.3806146572106,0.4605263157894737
177,693.3806146572106,0.38815789473684215
178,693.3806146572106,0.5
179,693.3806146572106,0.513157894736842
180,693.3806146572106,0.5460526315789473
181,693.3806146572106,0.506578947368421
182,693.3806146572106,0.5526315789473684
183,693.3806146572106,0.4407894736842105
184,693.3806146572106,0.381578947368421
185,693.3806146572106,0.5592105263157895
186,693.3806146572106,0.5789473684210527
187,693.3806146572106,0.5657894736842105
188,693.3806146572106,0.4671052631578947
189,693.3806146572106,0.4078947368421053
190,693.3806146572106,0.4736842105263158
191,696.1780929866036,0.5855263157894737
192,696.1780929866036,0.5263157894736843
193,696.1780929866036,0.5789473684210527
194,696.1780929866036,0.5460526315789473
195,696.1780929866036,0.5592105263157895
196,696.1780929866036,0.5657894736842105
197,696.1780929866036,0.5394736842105263
198,696.1780929866036,0.5328947368421053
199,696.1780929866036,0.5526315789473684
200,696.1780929866036,0.5723684210526316
201,696.1780929866036,0.5197368421052632
202,698.9755713159971,0.36184210526315785
203,698.9755713159971,0.4473684210526315
204,698.9755713159971,0.4407894736842105
205,698.9755713159971,0.38815789473684215
206,698.9755713159971,0.4078947368421053
207,698.9755713159971,0.4605263157894737
208,698.9755713159971,0.45394736842105265
209,698.9755713159971,0.5197368421052632
210,698.9755713159971,0.4013157894736842
211,698.9755713159971,0.513157894736842
212,698.9755713159971,0.381578947368421
213,698.9755713159971,0.5
214,698.9755713159971,0.375
215,698.9755713159971,0.368421052631579
216,698.9755713159971,0.3092105263157895
217,698.9755713159971,0.4144736842105263
218,698.9755713159971,0.4671052631578947
219,698.9755713159971,0.4342105263157895
220,698.9755713159971,0.493421052631579
221,698.9755713159971,0.42105263157894735
222,698.9755713159971,0.48684210526315785
223,698.9755713159971,0.48026315789473684
224,698.9755713159971,0.3026315789473685
225,698.9755713159971,0.4276315789473685
226,698.9755713159971,0.4736842105263158
227,698.9755713159971,0.39473684210526316
228,698.9755713159971,0.506578947368421
229,698.9755713159971,0.32894736842105265
230,698.9755713159971,0.29605263157894735
231,698.9755713159971,0.3421052631578947
232,698.9755713159971,0.3157894736842105
233,698.9755713159971,0.35526315789473684
234,698.9755713159971,0.3355263157894737
235,698.9755713159971,0.3223684210526315
236,698.9755713159971,0.3486842105263158
237,701.7730496453901,0.2763157894736842
238,701.7730496453901,0.256578947368421
239,701.7730496453901,0.25
240,701.7730496453901,0.22368421052631582
241,701.7730496453901,0.23684210526315785
242,701.7730496453901,0.2894736842105263
243,701.7730496453901,0.29605263157894735
244,701.7730496453901,0.26973684210526316
245,701.7730496453901,0.2828947368421053
246,701.7730496453901,0.23026315789473684
247,701.7730496453901,0.24342105263157898
248,701.7730496453901,0.26315789473684215
249,704.5705279747831,0.1842105263157895
250,704.5705279747831,0.20394736842105265
251,704.5705279747831,0.19736842105263153
252,704.5705279747831,0.22368421052631582
253,704.5705279747831,0.1907894736842105
254,704.5705279747831,0.17763157894736847
255,704.5705279747831,0.21052631578947367
256,704.5705279747831,0.2171052631578947
257,707.3680063041766,0.16447368421052633
258,707.3680063041766,0.15131578947368418
259,707.3680063041766,0.17105263157894735
260,707.3680063041766,0.1578947368421053
261,707.3680063041766,0.17763157894736847
262,710.1654846335696,0.15131578947368418
263,710.1654846335696,0.14473684210526316
264,712.962962962963,0.14473684210526316
265,715.7604412923561,0.14473684210526316
266,718.5579196217495,0.14473684210526316
267,718.5579196217495,0.15131578947368418
268,721.3553979511425,0.15131578947368418
269,724.152876280536,0.15131578947368418
270,726.950354609929,0.15131578947368418
271,729.7478329393225,0.15131578947368418
272,732.5453112687155,0.14473684210526316
273,732.5453112687155,0.15131578947368418
274,735.3427895981085,0.14473684210526316
275,738.140267927502,0.14473684210526316
276,738.140267927502,0.15131578947368418
277,740.937746256895,0.1578947368421053
278,740.937746256895,0.15131578947368418
279,743.7352245862885,0.15131578947368418
280,743.7352245862885,0.1578947368421053
281,746.5327029156815,0.15131578947368418
282,749.330181245075,0.15131578947368418
283,752.127659574468,0.1578947368421053
284,752.127659574468,0.15131578947368418
285,754.9251379038615,0.15131578947368418
286,754.9251379038615,0.14473684210526316
287,754.9251379038615,0.1578947368421053
288,757.7226162332545,0.14473684210526316
289,757.7226162332545,0.13815789473684215
290,760.520094562648,0.13157894736842102
291,760.520094562648,0.13815789473684215
292,763.317572892041,0.13157894736842102
293,763.317572892041,0.125
294,763.317572892041,0.11184210526315785
295,763.317572892041,0.11842105263157898
296,766.115051221434,0.09868421052631582
297,766.115051221434,0.11184210526315785
298,766.115051221434,0.10526315789473684
299,768.9125295508275,0.09210526315789469
300,768.9125295508275,0.09868421052631582
301,768.9125295508275,0.07894736842105265
302,768.9125295508275,0.08552631578947367
303,771.7100078802205,0.07236842105263153
304,771.7100078802205,0.07894736842105265
305,774.507486209614,0.06578947368421051
306,774.507486209614,0.05921052631578949
307,774.507486209614,0.052631578947368474
308,774.507486209614,0.07236842105263153
309,777.304964539007,0.052631578947368474
310,780.1024428684004,0.03947368421052633
311,780.1024428684004,0.052631578947368474
312,780.1024428684004,0.046052631578947345
313,782.8999211977934,0.03947368421052633
314,785.6973995271869,0.03289473684210531
315,785.6973995271869,0.03947368421052633
316,788.4948778565799,0.03289473684210531
317,791.2923561859734,0.03289473684210531
318,794.0898345153664,0.03289473684210531
319,794.0898345153664,0.02631578947368418
320,796.8873128447594,0.02631578947368418
321,799.6847911741529,0.02631578947368418
322,802.4822695035459,0.02631578947368418
323,805.2797478329394,0.02631578947368418
324,808.0772261623324,0.02631578947368418
325,810.8747044917259,0.02631578947368418
326,810.8747044917259,0.019736842105263164
327,816.4696611505124,0.019736842105263164
328,819.2671394799054,0.019736842105263164
329,822.0646178092989,0.019736842105263164
330,824.8620961386919,0.019736842105263164
331,827.6595744680849,0.019736842105263164
332,827.6595744680849,0.02631578947368418
333,830.4570527974784,0.02631578947368418
334,833.2545311268714,0.02631578947368418
335,836.0520094562648,0.03289473684210531
336,836.0520094562648,0.02631578947368418
337,838.8494877856579,0.03289473684210531
338,841.6469661150513,0.03289473684210531
339,841.6469661150513,0.02631578947368418
340,844.4444444444443,0.02631578947368418
341,847.2419227738378,0.02631578947368418
342,850.0394011032308,0.02631578947368418
343,852.8368794326243,0.02631578947368418
344,855.6343577620173,0.03289473684210531
345,855.6343577620173,0.02631578947368418
346,858.4318360914103,0.03289473684210531
347,861.2293144208038,0.03289473684210531
348,861.2293144208038,0.02631578947368418
349,864.0267927501968,0.03289473684210531
350,866.8242710795903,0.03289473684210531
351,869.6217494089833,0.03289473684210531
352,872.4192277383768,0.03289473684210531
353,875.2167060677698,0.03289473684210531
354,875.2167060677698,0.03947368421052633
355,878.0141843971633,0.03947368421052633
356,880.8116627265563,0.03947368421052633
357,880.8116627265563,0.046052631578947345
358,883.6091410559497,0.046052631578947345
359,886.4066193853428,0.05921052631578949
360,886.4066193853428,0.046052631578947345
361,886.4066193853428,0.052631578947368474
362,889.2040977147362,0.06578947368421051
363,889.2040977147362,0.05921052631578949
364,892.0015760441293,0.08552631578947367
365,892.0015760441293,0.09210526315789469
366,892.0015760441293,0.09868421052631582
367,892.0015760441293,0.07894736842105265
368,892.0015760441293,0.10526315789473684
369,892.0015760441293,0.06578947368421051
370,892.0015760441293,0.07236842105263153
371,894.7990543735223,0.14473684210526316
372,894.7990543735223,0.11184210526315785
373,894.7990543735223,0.13815789473684215
374,894.7990543735223,0.125
375,894.7990543735223,0.11842105263157898
376,894.7990543735223,0.10526315789473684
377,894.7990543735223,0.13157894736842102
378,897.5965327029157,0.22368421052631582
379,897.5965327029157,0.2763157894736842
380,897.5965327029157,0.17105263157894735
381,897.5965327029157,0.15131578947368418
382,897.5965327029157,0.1907894736842105
383,897.5965327029157,0.25
384,897.5965327029157,0.26315789473684215
385,897.5965327029157,0.16447368421052633
386,897.5965327029157,0.19736842105263153
387,897.5965327029157,0.14473684210526316
388,897.5965327029157,0.256578947368421
389,897.5965327029157,0.3026315789473685
390,897.5965327029157,0.23026315789473684
391,897.5965327029157,0.2894736842105263
392,897.5965327029157,0.3092105263157895
393,897.5965327029157,0.21052631578947367
394,897.5965327029157,0.2171052631578947
395,897.5965327029157,0.1842105263157895
396,897.5965327029157,0.24342105263157898
397,897.5965327029157,0.29605263157894735
398,897.5965327029157,0.17763157894736847
399,897.5965327029157,0.26973684210526316
400,897.5965327029157,0.20394736842105265
401,897.5965327029157,0.2828947368421053
402,897.5965327029157,0.23684210526315785
403,897.5965327029157,0.1578947368421053
404,900.3940110323088,0.4276315789473685
405,900.3940110323088,0.35526315789473684
406,900.3940110323088,0.4144736842105263
407,900.3940110323088,0.4342105263157895
408,900.3940110323088,0.45394736842105265
409,900.3940110323088,0.4473684210526315
410,900.3940110323088,0.368421052631579
411,900.3940110323088,0.42105263157894735
412,900.3940110323088,0.3223684210526315
413,900.3940110323088,0.3421052631578947
414,900.3940110323088,0.3486842105263158
415,900.3940110323088,0.4407894736842105
416,900.3940110323088,0.36184210526315785
417,900.3940110323088,0.4605263157894737
418,900.3940110323088,0.3092105263157895
419,900.3940110323088,0.4671052631578947
420,900.3940110323088,0.375
421,900.3940110323088,0.4078947368421053
422,900.3940110323088,0.4013157894736842
423,900.3940110323088,0.3355263157894737
424,900.3940110323088,0.39473684210526316
425,900.3940110323088,0.38815789473684215
426,900.3940110323088,0.3157894736842105
427,900.3940110323088,0.381578947368421
428,900.3940110323088,0.32894736842105265
429,903.1914893617022,0.5460526315789473
430,903.1914893617022,0.5855263157894737
431,903.1914893617022,0.5986842105263157
432,903.1914893617022,0.5921052631578947
433,903.1914893617022,0.6578947368421053
434,903.1914893617022,0.513157894736842
435,903.1914893617022,0.5789473684210527
436,903.1914893617022,0.6513157894736843
437,903.1914893617022,0.6052631578947368
438,903.1914893617022,0.4736842105263158
439,903.1914893617022,0.5394736842105263
440,903.1914893617022,0.506578947368421
441,903.1914893617022,0.6447368421052632
442,903.1914893617022,0.618421052631579
443,903.1914893617022,0.5197368421052632
444,903.1914893617022,0.638157894736842
445,903.1914893617022,0.5328947368421053
446,903.1914893617022,0.5263157894736843
447,903.1914893617022,0.625
448,903.1914893617022,0.4671052631578947
449,903.1914893617022,0.611842105263158
450,903.1914893617022,0.631578947368421
451,903.1914893617022,0.493421052631579
452,903.1914893617022,0.48026315789473684
453,903.1914893617022,0.5526315789473684
454,903.1914893617022,0.5657894736842105
455,903.1914893617022,0.5
456,903.1914893617022,0.5592105263157895
457,903.1914893617022,0.48684210526315785
458,903.1914893617022,0.5723684210526316
459,905.9889676910952,0.7631578947368421
460,905.9889676910952,0.8157894736842105
461,905.9889676910952,0.75
462,905.9889676910952,0.8355263157894737
463,905.9889676910952,0.8289473684210527
464,905.9889676910952,0.7697368421052632
465,905.9889676910952,0.7763157894736842
466,905.9889676910952,0.736842105263158
467,905.9889676910952,0.7828947368421053
468,905.9889676910952,0.743421052631579
469,905.9889676910952,0.7171052631578947
470,905.9889676910952,0.756578947368421
471,905.9889676910952,0.6776315789473684
472,905.9889676910952,0.7302631578947368
473,905.9889676910952,0.8421052631578947
474,905.9889676910952,0.7960526315789473
