,wavenumbers,absorbance
0,452.797478329393,0.09210526315789469
1,452.797478329393,0.08552631578947367
2,455.5949566587865,0.08552631578947367
3,458.3924349881795,0.08552631578947367
4,461.189913317573,0.08552631578947367
5,463.987391646966,0.08552631578947367
6,466.78486997635946,0.08552631578947367
7,469.5823483057525,0.08552631578947367
8,469.5823483057525,0.07894736842105265
9,472.37982663514595,0.08552631578947367
10,475.17730496453896,0.08552631578947367
11,477.97478329393243,0.08552631578947367
12,480.77226162332545,0.07894736842105265
13,480.77226162332545,0.08552631578947367
14,483.56973995271846,0.08552631578947367
15,483.56973995271846,0.07894736842105265
16,486.36721828211193,0.07894736842105265
17,489.16469661150495,0.07894736842105265
18,491.9621749408984,0.07894736842105265
19,494.75965327029144,0.07894736842105265
20,497.5571315996849,0.07894736842105265
21,500.3546099290779,0.07894736842105265
22,503.1520882584714,0.07894736842105265
23,505.9495665878644,0.07894736842105265
24,508.7470449172579,0.07894736842105265
25,511.5445232466509,0.07894736842105265
26,514.3420015760439,0.07894736842105265
27,517.1394799054374,0.07894736842105265
28,519.9369582348304,0.07894736842105265
29,522.7344365642239,0.07894736842105265
30,525.5319148936169,0.07894736842105265
31,528.3293932230104,0.07894736842105265
32,531.1268715524034,0.07894736842105265
33,533.9243498817968,0.07236842105263153
34,533.9243498817968,0.07894736842105265
35,536.7218282111899,0.07236842105263153
36,539.5193065405833,0.07236842105263153
37,542.3167848699763,0.07236842105263153
38,545.1142631993694,0.07236842105263153
39,547.9117415287628,0.07236842105263153
40,550.7092198581558,0.07236842105263153
41,553.5066981875493,0.07236842105263153
42,556.3041765169423,0.07236842105263153
43,556.3041765169423,0.06578947368421051
44,559.1016548463358,0.06578947368421051
45,561.8991331757288,0.06578947368421051
46,564.6966115051223,0.06578947368421051
47,567.4940898345153,0.06578947368421051
48,570.2915681639088,0.06578947368421051
49,573.0890464933018,0.06578947368421051
50,575.8865248226948,0.06578947368421051
51,578.6840031520883,0.06578947368421051
52,581.4814814814813,0.06578947368421051
53,584.2789598108748,0.06578947368421051
54,587.0764381402678,0.06578947368421051
55,589.8739164696613,0.06578947368421051
56,592.6713947990543,0.06578947368421051
57,595.4688731284477,0.06578947368421051
58,598.2663514578408,0.06578947368421051
59,601.0638297872342,0.06578947368421051
60,603.8613081166272,0.06578947368421051
61,606.6587864460207,0.05921052631578949
62,606.6587864460207,0.06578947368421051
63,609.4562647754137,0.05921052631578949
64,612.2537431048067,0.05921052631578949
65,615.0512214342002,0.052631578947368474
66,615.0512214342002,0.05921052631578949
67,617.8486997635932,0.052631578947368474
68,620.6461780929867,0.052631578947368474
69,623.4436564223797,0.052631578947368474
70,626.2411347517732,0.052631578947368474
71,629.0386130811662,0.052631578947368474
72,631.8360914105597,0.052631578947368474
73,634.6335697399527,0.046052631578947345
74,634.6335697399527,0.052631578947368474
75,637.4310480693462,0.046052631578947345
76,640.2285263987392,0.046052631578947345
77,643.0260047281322,0.046052631578947345
78,645.8234830575257,0.046052631578947345
79,648.6209613869187,0.046052631578947345
80,651.4184397163122,0.052631578947368474
81,651.4184397163122,0.046052631578947345
82,654.2159180457052,0.052631578947368474
83,657.0133963750986,0.05921052631578949
84,657.0133963750986,0.052631578947368474
85,659.8108747044917,0.05921052631578949
86,662.6083530338851,0.05921052631578949
87,662.6083530338851,0.052631578947368474
88,665.4058313632781,0.052631578947368474
89,668.2033096926716,0.052631578947368474
90,668.2033096926716,0.05921052631578949
91,671.0007880220646,0.052631578947368474
92,673.7982663514576,0.052631578947368474
93,673.7982663514576,0.046052631578947345
94,676.5957446808511,0.046052631578947345
95,679.3932230102441,0.046052631578947345
96,682.1907013396376,0.046052631578947345
97,684.9881796690306,0.046052631578947345
98,687.7856579984241,0.046052631578947345
99,690.5831363278171,0.046052631578947345
100,693.3806146572106,0.046052631578947345
101,696.1780929866036,0.046052631578947345
102,698.9755713159971,0.046052631578947345
103,701.7730496453901,0.046052631578947345
104,704.5705279747831,0.046052631578947345
105,707.3680063041766,0.046052631578947345
106,710.1654846335696,0.046052631578947345
107,712.962962962963,0.046052631578947345
108,715.7604412923561,0.046052631578947345
109,718.5579196217495,0.052631578947368474
110,721.3553979511425,0.052631578947368474
111,721.3553979511425,0.05921052631578949
112,724.152876280536,0.05921052631578949
113,724.152876280536,0.06578947368421051
114,726.950354609929,0.06578947368421051
115,729.7478329393225,0.06578947368421051
116,729.7478329393225,0.05921052631578949
117,732.5453112687155,0.05921052631578949
118,732.5453112687155,0.052631578947368474
119,735.3427895981085,0.052631578947368474
120,738.140267927502,0.046052631578947345
121,738.140267927502,0.052631578947368474
122,740.937746256895,0.046052631578947345
123,743.7352245862885,0.03947368421052633
124,743.7352245862885,0.046052631578947345
125,746.5327029156815,0.03947368421052633
126,749.330181245075,0.03947368421052633
127,752.127659574468,0.03947368421052633
128,754.9251379038615,0.03947368421052633
129,757.7226162332545,0.03947368421052633
130,760.520094562648,0.03947368421052633
131,763.317572892041,0.03947368421052633
132,766.115051221434,0.03947368421052633
133,768.9125295508275,0.03947368421052633
134,768.9125295508275,0.046052631578947345
135,771.7100078802205,0.046052631578947345
136,774.507486209614,0.046052631578947345
137,777.304964539007,0.046052631578947345
138,780.1024428684004,0.046052631578947345
139,782.8999211977934,0.046052631578947345
140,785.6973995271869,0.046052631578947345
141,785.6973995271869,0.052631578947368474
142,788.4948778565799,0.052631578947368474
143,791.2923561859734,0.052631578947368474
144,794.0898345153664,0.052631578947368474
145,794.0898345153664,0.05921052631578949
146,796.8873128447594,0.06578947368421051
147,796.8873128447594,0.05921052631578949
148,799.6847911741529,0.07236842105263153
149,799.6847911741529,0.07894736842105265
150,799.6847911741529,0.08552631578947367
151,799.6847911741529,0.06578947368421051
152,799.6847911741529,0.09210526315789469
153,802.4822695035459,0.09210526315789469
154,802.4822695035459,0.11184210526315785
155,802.4822695035459,0.09868421052631582
156,802.4822695035459,0.11842105263157898
157,802.4822695035459,0.10526315789473684
158,805.2797478329394,0.13157894736842102
159,805.2797478329394,0.11842105263157898
160,805.2797478329394,0.125
161,805.2797478329394,0.1842105263157895
162,805.2797478329394,0.13815789473684215
163,805.2797478329394,0.14473684210526316
164,805.2797478329394,0.17105263157894735
165,805.2797478329394,0.1578947368421053
166,805.2797478329394,0.15131578947368418
167,805.2797478329394,0.16447368421052633
168,805.2797478329394,0.17763157894736847
169,808.0772261623324,0.1842105263157895
170,808.0772261623324,0.17763157894736847
171,810.8747044917259,0.17105263157894735
172,810.8747044917259,0.14473684210526316
173,810.8747044917259,0.16447368421052633
174,810.8747044917259,0.13157894736842102
175,810.8747044917259,0.125
176,810.8747044917259,0.11842105263157898
177,810.8747044917259,0.13815789473684215
178,810.8747044917259,0.17763157894736847
179,810.8747044917259,0.1578947368421053
180,810.8747044917259,0.15131578947368418
181,813.6721828211189,0.11842105263157898
182,813.6721828211189,0.10526315789473684
183,813.6721828211189,0.09210526315789469
184,813.6721828211189,0.09868421052631582
185,813.6721828211189,0.11184210526315785
186,816.4696611505124,0.09210526315789469
187,816.4696611505124,0.07894736842105265
188,816.4696611505124,0.08552631578947367
189,819.2671394799054,0.07236842105263153
190,819.2671394799054,0.06578947368421051
191,819.2671394799054,0.07894736842105265
192,822.0646178092989,0.06578947368421051
193,822.0646178092989,0.05921052631578949
194,824.8620961386919,0.05921052631578949
195,827.6595744680849,0.05921052631578949
196,830.4570527974784,0.05921052631578949
197,833.2545311268714,0.05921052631578949
198,836.0520094562648,0.05921052631578949
199,838.8494877856579,0.05921052631578949
200,841.6469661150513,0.05921052631578949
201,844.4444444444443,0.05921052631578949
202,847.2419227738378,0.05921052631578949
203,850.0394011032308,0.05921052631578949
204,852.8368794326243,0.05921052631578949
205,855.6343577620173,0.06578947368421051
206,855.6343577620173,0.05921052631578949
207,858.4318360914103,0.06578947368421051
208,861.2293144208038,0.06578947368421051
209,864.0267927501968,0.06578947368421051
210,864.0267927501968,0.07236842105263153
211,866.8242710795903,0.07236842105263153
212,869.6217494089833,0.06578947368421051
213,869.6217494089833,0.07236842105263153
214,872.4192277383768,0.06578947368421051
215,875.2167060677698,0.06578947368421051
216,878.0141843971633,0.06578947368421051
217,880.8116627265563,0.06578947368421051
218,883.6091410559497,0.06578947368421051
219,886.4066193853428,0.06578947368421051
220,889.2040977147362,0.06578947368421051
221,892.0015760441293,0.06578947368421051
222,892.0015760441293,0.07236842105263153
223,894.7990543735223,0.07236842105263153
224,897.5965327029157,0.07236842105263153
225,897.5965327029157,0.06578947368421051
226,900.3940110323088,0.06578947368421051
227,903.1914893617022,0.06578947368421051
228,905.9889676910952,0.06578947368421051
229,908.7864460204887,0.06578947368421051
230,911.5839243498817,0.06578947368421051
231,914.3814026792752,0.06578947368421051
232,917.1788810086682,0.06578947368421051
233,919.9763593380617,0.06578947368421051
234,922.7738376674547,0.06578947368421051
235,925.5713159968477,0.06578947368421051
236,928.3687943262412,0.06578947368421051
237,931.1662726556342,0.06578947368421051
238,933.9637509850277,0.07236842105263153
239,933.9637509850277,0.06578947368421051
240,936.7612293144207,0.07236842105263153
241,939.5587076438142,0.07236842105263153
242,939.5587076438142,0.07894736842105265
243,942.3561859732072,0.07894736842105265
244,942.3561859732072,0.08552631578947367
245,945.1536643026006,0.09210526315789469
246,945.1536643026006,0.08552631578947367
247,947.9511426319937,0.09868421052631582
248,947.9511426319937,0.09210526315789469
249,950.7486209613871,0.11184210526315785
250,950.7486209613871,0.10526315789473684
251,950.7486209613871,0.09868421052631582
252,953.5460992907801,0.13157894736842102
253,953.5460992907801,0.11842105263157898
254,953.5460992907801,0.11184210526315785
255,953.5460992907801,0.125
256,956.3435776201732,0.14473684210526316
257,956.3435776201732,0.15131578947368418
258,956.3435776201732,0.13815789473684215
259,956.3435776201732,0.13157894736842102
260,959.1410559495666,0.1578947368421053
261,959.1410559495666,0.16447368421052633
262,959.1410559495666,0.15131578947368418
263,961.9385342789597,0.16447368421052633
264,961.9385342789597,0.17763157894736847
265,961.9385342789597,0.1842105263157895
266,961.9385342789597,0.1907894736842105
267,961.9385342789597,0.17105263157894735
268,964.7360126083531,0.20394736842105265
269,964.7360126083531,0.19736842105263153
270,964.7360126083531,0.1907894736842105
271,967.5334909377461,0.2171052631578947
272,967.5334909377461,0.22368421052631582
273,967.5334909377461,0.20394736842105265
274,967.5334909377461,0.21052631578947367
275,970.3309692671396,0.22368421052631582
276,970.3309692671396,0.23026315789473684
277,973.1284475965326,0.24342105263157898
278,973.1284475965326,0.256578947368421
279,973.1284475965326,0.25
280,973.1284475965326,0.23684210526315785
281,973.1284475965326,0.23026315789473684
282,975.9259259259261,0.256578947368421
283,975.9259259259261,0.26973684210526316
284,975.9259259259261,0.26315789473684215
285,978.7234042553191,0.29605263157894735
286,978.7234042553191,0.2828947368421053
287,978.7234042553191,0.2763157894736842
288,978.7234042553191,0.2894736842105263
289,978.7234042553191,0.26973684210526316
290,981.5208825847126,0.29605263157894735
291,984.3183609141056,0.29605263157894735
292,984.3183609141056,0.2894736842105263
293,987.1158392434986,0.2894736842105263
294,987.1158392434986,0.26973684210526316
295,987.1158392434986,0.26315789473684215
296,987.1158392434986,0.2828947368421053
297,987.1158392434986,0.2763157894736842
298,989.9133175728921,0.26315789473684215
299,989.9133175728921,0.25
300,989.9133175728921,0.256578947368421
301,992.7107959022851,0.24342105263157898
302,992.7107959022851,0.23684210526315785
303,992.7107959022851,0.22368421052631582
304,992.7107959022851,0.25
305,992.7107959022851,0.23026315789473684
306,995.5082742316786,0.2171052631578947
307,995.5082742316786,0.22368421052631582
308,998.3057525610716,0.19736842105263153
309,998.3057525610716,0.2171052631578947
310,998.3057525610716,0.21052631578947367
311,998.3057525610716,0.20394736842105265
312,1001.103230890465,0.19736842105263153
313,1003.9007092198581,0.1907894736842105
314,1003.9007092198581,0.19736842105263153
315,1006.6981875492515,0.1907894736842105
316,1009.4956658786446,0.1907894736842105
317,1012.293144208038,0.1907894736842105
318,1012.293144208038,0.19736842105263153
319,1015.090622537431,0.20394736842105265
320,1015.090622537431,0.21052631578947367
321,1015.090622537431,0.19736842105263153
322,1017.8881008668241,0.22368421052631582
323,1017.8881008668241,0.23026315789473684
324,1017.8881008668241,0.21052631578947367
325,1017.8881008668241,0.2171052631578947
326,1020.6855791962175,0.23684210526315785
327,1020.6855791962175,0.23026315789473684
328,1023.4830575256105,0.256578947368421
329,1023.4830575256105,0.24342105263157898
330,1023.4830575256105,0.25
331,1023.4830575256105,0.23684210526315785
332,1026.280535855004,0.26315789473684215
333,1026.280535855004,0.26973684210526316
334,1026.280535855004,0.256578947368421
335,1029.078014184397,0.26973684210526316
336,1029.078014184397,0.2763157894736842
337,1031.8754925137905,0.2763157894736842
338,1031.8754925137905,0.2828947368421053
339,1034.6729708431835,0.2894736842105263
340,1034.6729708431835,0.2828947368421053
341,1037.470449172577,0.2894736842105263
342,1040.26792750197,0.29605263157894735
343,1040.26792750197,0.2894736842105263
344,1040.26792750197,0.3026315789473685
345,1043.0654058313635,0.3157894736842105
346,1043.0654058313635,0.3026315789473685
347,1043.0654058313635,0.3092105263157895
348,1045.8628841607565,0.3157894736842105
349,1045.8628841607565,0.32894736842105265
350,1045.8628841607565,0.3223684210526315
351,1048.6603624901495,0.3421052631578947
352,1048.6603624901495,0.3486842105263158
353,1048.6603624901495,0.3355263157894737
354,1048.6603624901495,0.32894736842105265
355,1048.6603624901495,0.35526315789473684
356,1051.457840819543,0.35526315789473684
357,1051.457840819543,0.36184210526315785
358,1054.255319148936,0.375
359,1054.255319148936,0.36184210526315785
360,1054.255319148936,0.368421052631579
361,1057.0527974783295,0.375
362,1059.8502758077225,0.36184210526315785
363,1059.8502758077225,0.368421052631579
364,1059.8502758077225,0.375
365,1062.647754137116,0.36184210526315785
366,1062.647754137116,0.35526315789473684
367,1062.647754137116,0.3486842105263158
368,1065.445232466509,0.3157894736842105
369,1065.445232466509,0.3486842105263158
370,1065.445232466509,0.3421052631578947
371,1065.445232466509,0.3223684210526315
372,1065.445232466509,0.3355263157894737
373,1065.445232466509,0.32894736842105265
374,1068.2427107959024,0.3157894736842105
375,1068.2427107959024,0.3026315789473685
376,1068.2427107959024,0.3092105263157895
377,1068.2427107959024,0.29605263157894735
378,1071.0401891252955,0.2828947368421053
379,1071.0401891252955,0.29605263157894735
380,1071.0401891252955,0.2894736842105263
381,1073.837667454689,0.24342105263157898
382,1073.837667454689,0.26315789473684215
383,1073.837667454689,0.25
384,1073.837667454689,0.256578947368421
385,1073.837667454689,0.2763157894736842
386,1073.837667454689,0.2828947368421053
387,1073.837667454689,0.23684210526315785
388,1073.837667454689,0.26973684210526316
389,1076.635145784082,0.23026315789473684
390,1076.635145784082,0.23684210526315785
391,1076.635145784082,0.22368421052631582
392,1076.635145784082,0.2171052631578947
393,1079.432624113475,0.1907894736842105
394,1079.432624113475,0.1842105263157895
395,1079.432624113475,0.17763157894736847
396,1079.432624113475,0.19736842105263153
397,1079.432624113475,0.21052631578947367
398,1079.432624113475,0.20394736842105265
399,1079.432624113475,0.2171052631578947
400,1082.2301024428684,0.1578947368421053
401,1082.2301024428684,0.16447368421052633
402,1082.2301024428684,0.17763157894736847
403,1082.2301024428684,0.17105263157894735
404,1085.0275807722614,0.1578947368421053
405,1085.0275807722614,0.13157894736842102
406,1085.0275807722614,0.13815789473684215
407,1085.0275807722614,0.14473684210526316
408,1085.0275807722614,0.15131578947368418
409,1087.825059101655,0.13157894736842102
410,1087.825059101655,0.125
411,1090.622537431048,0.11842105263157898
412,1090.622537431048,0.11184210526315785
413,1090.622537431048,0.125
414,1093.4200157604414,0.11184210526315785
415,1096.2174940898344,0.11184210526315785
416,1099.014972419228,0.11184210526315785
417,1099.014972419228,0.11842105263157898
418,1101.812450748621,0.11842105263157898
419,1104.6099290780144,0.13157894736842102
420,1104.6099290780144,0.125
421,1104.6099290780144,0.11842105263157898
422,1107.4074074074074,0.13815789473684215
423,1107.4074074074074,0.13157894736842102
424,1110.2048857368004,0.1578947368421053
425,1110.2048857368004,0.14473684210526316
426,1110.2048857368004,0.15131578947368418
427,1110.2048857368004,0.13815789473684215
428,1113.0023640661939,0.16447368421052633
429,1113.0023640661939,0.1578947368421053
430,1115.799842395587,0.16447368421052633
431,1115.799842395587,0.17105263157894735
432,1118.5973207249804,0.17105263157894735
433,1118.5973207249804,0.17763157894736847
434,1121.3947990543734,0.17763157894736847
435,1124.1922773837669,0.17763157894736847
436,1126.9897557131599,0.17763157894736847
437,1126.9897557131599,0.17105263157894735
438,1129.7872340425533,0.17105263157894735
439,1129.7872340425533,0.17763157894736847
440,1132.5847123719464,0.17763157894736847
441,1135.3821907013398,0.1842105263157895
442,1135.3821907013398,0.17763157894736847
443,1138.1796690307328,0.1907894736842105
444,1138.1796690307328,0.1842105263157895
445,1140.9771473601263,0.1907894736842105
446,1140.9771473601263,0.19736842105263153
447,1140.9771473601263,0.20394736842105265
448,1143.7746256895193,0.20394736842105265
449,1146.5721040189123,0.21052631578947367
450,1146.5721040189123,0.22368421052631582
451,1146.5721040189123,0.2171052631578947
452,1146.5721040189123,0.20394736842105265
453,1149.3695823483058,0.23026315789473684
454,1149.3695823483058,0.22368421052631582
455,1152.1670606776988,0.26315789473684215
456,1152.1670606776988,0.256578947368421
457,1152.1670606776988,0.23026315789473684
458,1152.1670606776988,0.24342105263157898
459,1152.1670606776988,0.25
460,1152.1670606776988,0.23684210526315785
461,1154.9645390070923,0.2828947368421053
462,1154.9645390070923,0.2894736842105263
463,1154.9645390070923,0.2763157894736842
464,1154.9645390070923,0.26315789473684215
465,1154.9645390070923,0.26973684210526316
466,1157.7620173364853,0.29605263157894735
467,1157.7620173364853,0.3026315789473685
468,1157.7620173364853,0.2894736842105263
469,1157.7620173364853,0.3092105263157895
