,wavenumbers,absorbance
0,452.797478329393,0.03289473684210531
1,455.5949566587865,0.03289473684210531
2,458.3924349881795,0.03289473684210531
3,461.189913317573,0.03947368421052633
4,461.189913317573,0.03289473684210531
5,463.987391646966,0.03947368421052633
6,466.78486997635946,0.03947368421052633
7,469.5823483057525,0.03947368421052633
8,472.37982663514595,0.03947368421052633
9,475.17730496453896,0.03947368421052633
10,477.97478329393243,0.03289473684210531
11,477.97478329393243,0.03947368421052633
12,480.77226162332545,0.03289473684210531
13,483.56973995271846,0.03289473684210531
14,486.36721828211193,0.03289473684210531
15,489.16469661150495,0.02631578947368418
16,489.16469661150495,0.03289473684210531
17,491.9621749408984,0.02631578947368418
18,494.75965327029144,0.02631578947368418
19,494.75965327029144,0.019736842105263164
20,497.5571315996849,0.019736842105263164
21,500.3546099290779,0.019736842105263164
22,503.1520882584714,0.019736842105263164
23,505.9495665878644,0.019736842105263164
24,508.7470449172579,0.019736842105263164
25,511.5445232466509,0.019736842105263164
26,514.3420015760439,0.019736842105263164
27,517.1394799054374,0.019736842105263164
28,519.9369582348304,0.019736842105263164
29,522.7344365642239,0.019736842105263164
30,525.5319148936169,0.019736842105263164
31,528.3293932230104,0.019736842105263164
32,531.1268715524034,0.019736842105263164
33,533.9243498817968,0.019736842105263164
34,536.7218282111899,0.019736842105263164
35,539.5193065405833,0.019736842105263164
36,542.3167848699763,0.019736842105263164
37,545.1142631993694,0.019736842105263164
38,547.9117415287628,0.019736842105263164
39,550.7092198581558,0.019736842105263164
40,553.5066981875493,0.019736842105263164
41,556.3041765169423,0.019736842105263164
42,559.1016548463358,0.019736842105263164
43,561.8991331757288,0.019736842105263164
44,564.6966115051223,0.019736842105263164
45,564.6966115051223,0.02631578947368418
46,567.4940898345153,0.02631578947368418
47,570.2915681639088,0.02631578947368418
48,573.0890464933018,0.02631578947368418
49,575.8865248226948,0.02631578947368418
50,578.6840031520883,0.02631578947368418
51,581.4814814814813,0.02631578947368418
52,581.4814814814813,0.03289473684210531
53,584.2789598108748,0.03289473684210531
54,587.0764381402678,0.03289473684210531
55,589.8739164696613,0.03289473684210531
56,592.6713947990543,0.03289473684210531
57,595.4688731284477,0.03289473684210531
58,598.2663514578408,0.03947368421052633
59,598.2663514578408,0.03289473684210531
60,601.0638297872342,0.03947368421052633
61,603.8613081166272,0.03947368421052633
62,603.8613081166272,0.03289473684210531
63,606.6587864460207,0.03289473684210531
64,609.4562647754137,0.03289473684210531
65,612.2537431048067,0.03289473684210531
66,615.0512214342002,0.03289473684210531
67,617.8486997635932,0.03289473684210531
68,620.6461780929867,0.03289473684210531
69,623.4436564223797,0.03289473684210531
70,626.2411347517732,0.03289473684210531
71,629.0386130811662,0.03289473684210531
72,631.8360914105597,0.03289473684210531
73,634.6335697399527,0.03289473684210531
74,637.4310480693462,0.03289473684210531
75,640.2285263987392,0.03289473684210531
76,643.0260047281322,0.03289473684210531
77,645.8234830575257,0.03289473684210531
78,645.8234830575257,0.03947368421052633
79,648.6209613869187,0.03947368421052633
80,651.4184397163122,0.03947368421052633
81,654.2159180457052,0.03947368421052633
82,657.0133963750986,0.03947368421052633
83,657.0133963750986,0.046052631578947345
84,659.8108747044917,0.046052631578947345
85,662.6083530338851,0.046052631578947345
86,662.6083530338851,0.052631578947368474
87,665.4058313632781,0.052631578947368474
88,665.4058313632781,0.05921052631578949
89,668.2033096926716,0.05921052631578949
90,671.0007880220646,0.05921052631578949
91,671.0007880220646,0.06578947368421051
92,673.7982663514576,0.06578947368421051
93,676.5957446808511,0.06578947368421051
94,679.3932230102441,0.06578947368421051
95,679.3932230102441,0.07236842105263153
96,682.1907013396376,0.07236842105263153
97,684.9881796690306,0.07894736842105265
98,684.9881796690306,0.07236842105263153
99,687.7856579984241,0.07894736842105265
100,690.5831363278171,0.07894736842105265
101,693.3806146572106,0.07894736842105265
102,696.1780929866036,0.08552631578947367
103,696.1780929866036,0.07894736842105265
104,698.9755713159971,0.08552631578947367
105,701.7730496453901,0.08552631578947367
106,701.7730496453901,0.09210526315789469
107,704.5705279747831,0.09210526315789469
108,707.3680063041766,0.09210526315789469
109,707.3680063041766,0.09868421052631582
110,710.1654846335696,0.09868421052631582
111,710.1654846335696,0.10526315789473684
112,712.962962962963,0.11842105263157898
113,712.962962962963,0.11184210526315785
114,712.962962962963,0.10526315789473684
115,715.7604412923561,0.11842105263157898
116,715.7604412923561,0.125
117,718.5579196217495,0.13157894736842102
118,718.5579196217495,0.125
119,721.3553979511425,0.125
120,721.3553979511425,0.13157894736842102
121,724.152876280536,0.11842105263157898
122,724.152876280536,0.125
123,724.152876280536,0.11184210526315785
124,726.950354609929,0.11184210526315785
125,726.950354609929,0.10526315789473684
126,729.7478329393225,0.10526315789473684
127,729.7478329393225,0.09868421052631582
128,732.5453112687155,0.07894736842105265
129,732.5453112687155,0.09210526315789469
130,732.5453112687155,0.09868421052631582
131,732.5453112687155,0.08552631578947367
132,735.3427895981085,0.07236842105263153
133,735.3427895981085,0.07894736842105265
134,738.140267927502,0.07236842105263153
135,738.140267927502,0.06578947368421051
136,740.937746256895,0.06578947368421051
137,740.937746256895,0.05921052631578949
138,743.7352245862885,0.052631578947368474
139,743.7352245862885,0.05921052631578949
140,746.5327029156815,0.052631578947368474
141,749.330181245075,0.052631578947368474
142,749.330181245075,0.046052631578947345
143,752.127659574468,0.046052631578947345
144,754.9251379038615,0.03947368421052633
145,754.9251379038615,0.046052631578947345
146,757.7226162332545,0.03947368421052633
147,760.520094562648,0.03947368421052633
148,763.317572892041,0.03947368421052633
149,766.115051221434,0.03947368421052633
150,768.9125295508275,0.03289473684210531
151,768.9125295508275,0.03947368421052633
152,771.7100078802205,0.03289473684210531
153,774.507486209614,0.03289473684210531
154,777.304964539007,0.03289473684210531
155,780.1024428684004,0.03289473684210531
156,782.8999211977934,0.03289473684210531
157,785.6973995271869,0.03289473684210531
158,788.4948778565799,0.03289473684210531
159,791.2923561859734,0.03289473684210531
160,794.0898345153664,0.03289473684210531
161,796.8873128447594,0.03289473684210531
162,799.6847911741529,0.03289473684210531
163,802.4822695035459,0.03289473684210531
164,805.2797478329394,0.03289473684210531
165,808.0772261623324,0.03289473684210531
166,810.8747044917259,0.03289473684210531
167,813.6721828211189,0.03289473684210531
168,816.4696611505124,0.03289473684210531
169,819.2671394799054,0.03947368421052633
170,819.2671394799054,0.03289473684210531
171,822.0646178092989,0.03947368421052633
172,824.8620961386919,0.03947368421052633
173,827.6595744680849,0.03947368421052633
174,830.4570527974784,0.03947368421052633
175,833.2545311268714,0.03947368421052633
176,833.2545311268714,0.046052631578947345
177,836.0520094562648,0.046052631578947345
178,838.8494877856579,0.046052631578947345
179,841.6469661150513,0.046052631578947345
180,844.4444444444443,0.046052631578947345
181,847.2419227738378,0.046052631578947345
182,850.0394011032308,0.046052631578947345
183,852.8368794326243,0.046052631578947345
184,855.6343577620173,0.046052631578947345
185,858.4318360914103,0.046052631578947345
186,861.2293144208038,0.046052631578947345
187,864.0267927501968,0.052631578947368474
188,864.0267927501968,0.046052631578947345
189,866.8242710795903,0.052631578947368474
190,869.6217494089833,0.052631578947368474
191,872.4192277383768,0.052631578947368474
192,875.2167060677698,0.05921052631578949
193,875.2167060677698,0.052631578947368474
194,878.0141843971633,0.05921052631578949
195,880.8116627265563,0.05921052631578949
196,880.8116627265563,0.06578947368421051
197,883.6091410559497,0.06578947368421051
198,886.4066193853428,0.07236842105263153
199,886.4066193853428,0.06578947368421051
200,889.2040977147362,0.07236842105263153
201,892.0015760441293,0.07236842105263153
202,892.0015760441293,0.07894736842105265
203,894.7990543735223,0.07894736842105265
204,897.5965327029157,0.08552631578947367
205,897.5965327029157,0.07894736842105265
206,900.3940110323088,0.09210526315789469
207,900.3940110323088,0.08552631578947367
208,903.1914893617022,0.09210526315789469
209,905.9889676910952,0.09210526315789469
210,905.9889676910952,0.10526315789473684
211,905.9889676910952,0.09868421052631582
212,908.7864460204887,0.10526315789473684
213,911.5839243498817,0.11184210526315785
214,911.5839243498817,0.10526315789473684
215,914.3814026792752,0.11184210526315785
216,917.1788810086682,0.11184210526315785
217,917.1788810086682,0.11842105263157898
218,919.9763593380617,0.11842105263157898
219,922.7738376674547,0.11842105263157898
220,922.7738376674547,0.125
221,925.5713159968477,0.125
222,928.3687943262412,0.125
223,931.1662726556342,0.13157894736842102
224,931.1662726556342,0.125
225,933.9637509850277,0.13157894736842102
226,936.7612293144207,0.13157894736842102
227,939.5587076438142,0.13157894736842102
228,942.3561859732072,0.13157894736842102
229,942.3561859732072,0.125
230,945.1536643026006,0.125
231,945.1536643026006,0.11842105263157898
232,947.9511426319937,0.11184210526315785
233,947.9511426319937,0.11842105263157898
234,950.7486209613871,0.11184210526315785
235,950.7486209613871,0.10526315789473684
236,953.5460992907801,0.10526315789473684
237,953.5460992907801,0.09868421052631582
238,956.3435776201732,0.09868421052631582
239,959.1410559495666,0.09868421052631582
240,961.9385342789597,0.09210526315789469
241,961.9385342789597,0.09868421052631582
242,964.7360126083531,0.09210526315789469
243,964.7360126083531,0.08552631578947367
244,967.5334909377461,0.08552631578947367
245,967.5334909377461,0.07894736842105265
246,970.3309692671396,0.07236842105263153
247,970.3309692671396,0.07894736842105265
248,973.1284475965326,0.06578947368421051
249,973.1284475965326,0.07236842105263153
250,975.9259259259261,0.06578947368421051
251,978.7234042553191,0.06578947368421051
252,981.5208825847126,0.06578947368421051
253,984.3183609141056,0.06578947368421051
254,987.1158392434986,0.06578947368421051
255,987.1158392434986,0.052631578947368474
256,987.1158392434986,0.05921052631578949
257,989.9133175728921,0.046052631578947345
258,989.9133175728921,0.052631578947368474
259,992.7107959022851,0.03947368421052633
260,992.7107959022851,0.046052631578947345
261,995.5082742316786,0.03947368421052633
262,998.3057525610716,0.03947368421052633
263,1001.103230890465,0.03947368421052633
264,1003.9007092198581,0.03947368421052633
265,1006.6981875492515,0.03947368421052633
266,1009.4956658786446,0.03947368421052633
267,1012.293144208038,0.03947368421052633
268,1015.090622537431,0.03947368421052633
269,1017.8881008668241,0.03947368421052633
270,1020.6855791962175,0.03947368421052633
271,1023.4830575256105,0.03947368421052633
272,1026.280535855004,0.03947368421052633
273,1029.078014184397,0.03947368421052633
274,1031.8754925137905,0.03947368421052633
275,1034.6729708431835,0.03947368421052633
276,1037.470449172577,0.03947368421052633
277,1040.26792750197,0.03947368421052633
278,1043.0654058313635,0.03947368421052633
279,1045.8628841607565,0.03947368421052633
280,1048.6603624901495,0.03947368421052633
281,1051.457840819543,0.03947368421052633
282,1054.255319148936,0.03947368421052633
283,1057.0527974783295,0.03947368421052633
284,1059.8502758077225,0.03947368421052633
285,1062.647754137116,0.03947368421052633
286,1065.445232466509,0.03947368421052633
287,1068.2427107959024,0.03947368421052633
288,1071.0401891252955,0.03947368421052633
289,1073.837667454689,0.03947368421052633
290,1076.635145784082,0.03947368421052633
291,1079.432624113475,0.046052631578947345
292,1079.432624113475,0.03947368421052633
293,1082.2301024428684,0.046052631578947345
294,1085.0275807722614,0.046052631578947345
295,1087.825059101655,0.046052631578947345
296,1090.622537431048,0.046052631578947345
297,1093.4200157604414,0.046052631578947345
298,1096.2174940898344,0.046052631578947345
299,1099.014972419228,0.046052631578947345
300,1101.812450748621,0.046052631578947345
301,1104.6099290780144,0.046052631578947345
302,1104.6099290780144,0.03947368421052633
303,1107.4074074074074,0.03947368421052633
304,1110.2048857368004,0.046052631578947345
305,1110.2048857368004,0.03947368421052633
306,1113.0023640661939,0.046052631578947345
307,1115.799842395587,0.046052631578947345
308,1118.5973207249804,0.046052631578947345
309,1121.3947990543734,0.046052631578947345
310,1124.1922773837669,0.046052631578947345
311,1126.9897557131599,0.046052631578947345
312,1126.9897557131599,0.03947368421052633
313,1129.7872340425533,0.03947368421052633
314,1132.5847123719464,0.03947368421052633
315,1135.3821907013398,0.03947368421052633
316,1135.3821907013398,0.046052631578947345
317,1138.1796690307328,0.046052631578947345
318,1140.9771473601263,0.046052631578947345
319,1143.7746256895193,0.046052631578947345
320,1146.5721040189123,0.046052631578947345
321,1146.5721040189123,0.052631578947368474
322,1149.3695823483058,0.052631578947368474
323,1152.1670606776988,0.052631578947368474
324,1154.9645390070923,0.052631578947368474
325,1157.7620173364853,0.052631578947368474
326,1160.5594956658788,0.052631578947368474
327,1163.3569739952718,0.052631578947368474
328,1166.1544523246653,0.052631578947368474
329,1168.9519306540583,0.052631578947368474
330,1171.7494089834518,0.05921052631578949
331,1171.7494089834518,0.052631578947368474
332,1174.5468873128448,0.05921052631578949
333,1177.3443656422378,0.06578947368421051
334,1177.3443656422378,0.05921052631578949
335,1180.1418439716313,0.06578947368421051
336,1182.9393223010243,0.06578947368421051
337,1185.7368006304177,0.06578947368421051
338,1185.7368006304177,0.07236842105263153
339,1188.5342789598108,0.07236842105263153
340,1191.3317572892042,0.07236842105263153
341,1191.3317572892042,0.07894736842105265
342,1194.1292356185972,0.08552631578947367
343,1194.1292356185972,0.07894736842105265
344,1196.9267139479907,0.08552631578947367
345,1196.9267139479907,0.09210526315789469
346,1199.7241922773837,0.09868421052631582
347,1199.7241922773837,0.09210526315789469
348,1202.5216706067772,0.10526315789473684
349,1202.5216706067772,0.11184210526315785
350,1202.5216706067772,0.09868421052631582
351,1205.3191489361702,0.11184210526315785
352,1208.1166272655632,0.11184210526315785
353,1208.1166272655632,0.11842105263157898
354,1210.9141055949567,0.11842105263157898
355,1213.7115839243497,0.11842105263157898
356,1216.5090622537432,0.125
357,1216.5090622537432,0.11842105263157898
358,1219.3065405831362,0.125
359,1222.1040189125297,0.125
360,1224.9014972419227,0.125
361,1227.6989755713162,0.125
362,1230.4964539007092,0.125
363,1233.2939322301027,0.13157894736842102
364,1233.2939322301027,0.125
365,1236.0914105594957,0.13157894736842102
366,1236.0914105594957,0.13815789473684215
367,1238.8888888888887,0.13815789473684215
368,1238.8888888888887,0.14473684210526316
369,1241.6863672182822,0.14473684210526316
370,1244.4838455476752,0.14473684210526316
371,1247.2813238770686,0.14473684210526316
372,1247.2813238770686,0.13815789473684215
373,1250.0788022064617,0.13815789473684215
374,1252.8762805358551,0.13815789473684215
375,1255.6737588652481,0.13815789473684215
376,1258.4712371946416,0.13815789473684215
377,1261.2687155240346,0.14473684210526316
378,1261.2687155240346,0.13815789473684215
379,1264.066193853428,0.14473684210526316
380,1264.066193853428,0.15131578947368418
381,1266.8636721828211,0.15131578947368418
382,1269.6611505122141,0.15131578947368418
383,1269.6611505122141,0.1578947368421053
384,1272.4586288416076,0.1578947368421053
385,1272.4586288416076,0.16447368421052633
386,1275.2561071710006,0.16447368421052633
387,1275.2561071710006,0.17105263157894735
388,1278.053585500394,0.17763157894736847
389,1278.053585500394,0.17105263157894735
390,1278.053585500394,0.1842105263157895
391,1280.851063829787,0.1842105263157895
392,1283.6485421591806,0.17763157894736847
393,1283.6485421591806,0.1842105263157895
394,1283.6485421591806,0.17105263157894735
395,1286.4460204885736,0.17105263157894735
396,1289.243498817967,0.1578947368421053
397,1289.243498817967,0.17105263157894735
398,1289.243498817967,0.16447368421052633
399,1292.04097714736,0.15131578947368418
400,1292.04097714736,0.1578947368421053
401,1294.8384554767536,0.15131578947368418
402,1294.8384554767536,0.14473684210526316
403,1297.6359338061466,0.14473684210526316
404,1300.4334121355396,0.13815789473684215
405,1300.4334121355396,0.14473684210526316
406,1303.230890464933,0.13157894736842102
407,1303.230890464933,0.13815789473684215
408,1303.230890464933,0.125
409,1306.028368794326,0.11842105263157898
410,1306.028368794326,0.125
411,1308.8258471237195,0.11842105263157898
412,1308.8258471237195,0.11184210526315785
413,1311.6233254531126,0.11184210526315785
414,1311.6233254531126,0.10526315789473684
415,1314.420803782506,0.09868421052631582
416,1314.420803782506,0.10526315789473684
417,1317.218282111899,0.09868421052631582
418,1320.0157604412925,0.09210526315789469
419,1320.0157604412925,0.09868421052631582
420,1320.0157604412925,0.08552631578947367
421,1322.8132387706855,0.08552631578947367
422,1322.8132387706855,0.07894736842105265
423,1325.610717100079,0.07894736842105265
424,1328.408195429472,0.07236842105263153
425,1328.408195429472,0.07894736842105265
426,1331.205673758865,0.07236842105263153
427,1334.0031520882585,0.07236842105263153
428,1336.8006304176515,0.07236842105263153
429,1339.598108747045,0.07236842105263153
430,1342.395587076438,0.07236842105263153
431,1342.395587076438,0.06578947368421051
432,1345.1930654058315,0.06578947368421051
433,1347.9905437352245,0.05921052631578949
434,1347.9905437352245,0.06578947368421051
435,1350.788022064618,0.05921052631578949
436,1353.585500394011,0.05921052631578949
437,1356.3829787234044,0.05921052631578949
438,1359.1804570527975,0.05921052631578949
439,1361.9779353821905,0.05921052631578949
440,1364.775413711584,0.05921052631578949
441,1367.572892040977,0.05921052631578949
442,1370.3703703703704,0.05921052631578949
443,1370.3703703703704,0.07236842105263153
444,1370.3703703703704,0.06578947368421051
445,1373.1678486997635,0.07236842105263153
446,1373.1678486997635,0.07894736842105265
447,1375.965327029157,0.07236842105263153
448,1375.965327029157,0.06578947368421051
449,1375.965327029157,0.07894736842105265
450,1378.76280535855,0.06578947368421051
451,1381.5602836879434,0.05921052631578949
452,1381.5602836879434,0.06578947368421051
453,1384.3577620173364,0.05921052631578949
454,1387.15524034673,0.06578947368421051
455,1387.15524034673,0.05921052631578949
456,1389.952718676123,0.07236842105263153
457,1389.952718676123,0.06578947368421051
458,1389.952718676123,0.07894736842105265
459,1392.750197005516,0.08552631578947367
460,1392.750197005516,0.07894736842105265
461,1395.5476753349094,0.10526315789473684
462,1395.5476753349094,0.11184210526315785
463,1395.5476753349094,0.09210526315789469
464,1395.5476753349094,0.08552631578947367
465,1395.5476753349094,0.09868421052631582
466,1398.3451536643024,0.11842105263157898
467,1398.3451536643024,0.11184210526315785
