,wavenumbers,absorbance
0,452.797478329393,0.07236842105263153
1,452.797478329393,0.07894736842105265
2,455.5949566587865,0.07236842105263153
3,455.5949566587865,0.06578947368421051
4,458.3924349881795,0.06578947368421051
5,461.189913317573,0.06578947368421051
6,461.189913317573,0.05921052631578949
7,463.987391646966,0.05921052631578949
8,466.78486997635946,0.05921052631578949
9,469.5823483057525,0.05921052631578949
10,472.37982663514595,0.05921052631578949
11,475.17730496453896,0.05921052631578949
12,477.97478329393243,0.05921052631578949
13,480.77226162332545,0.05921052631578949
14,483.56973995271846,0.05921052631578949
15,486.36721828211193,0.05921052631578949
16,489.16469661150495,0.05921052631578949
17,491.9621749408984,0.05921052631578949
18,491.9621749408984,0.06578947368421051
19,494.75965327029144,0.06578947368421051
20,494.75965327029144,0.05921052631578949
21,497.5571315996849,0.05921052631578949
22,500.3546099290779,0.05921052631578949
23,503.1520882584714,0.05921052631578949
24,505.9495665878644,0.05921052631578949
25,508.7470449172579,0.05921052631578949
26,508.7470449172579,0.06578947368421051
27,511.5445232466509,0.06578947368421051
28,514.3420015760439,0.06578947368421051
29,517.1394799054374,0.06578947368421051
30,519.9369582348304,0.06578947368421051
31,522.7344365642239,0.06578947368421051
32,525.5319148936169,0.06578947368421051
33,528.3293932230104,0.06578947368421051
34,531.1268715524034,0.06578947368421051
35,533.9243498817968,0.06578947368421051
36,536.7218282111899,0.06578947368421051
37,539.5193065405833,0.06578947368421051
38,539.5193065405833,0.07236842105263153
39,542.3167848699763,0.07236842105263153
40,545.1142631993694,0.07236842105263153
41,545.1142631993694,0.07894736842105265
42,547.9117415287628,0.07894736842105265
43,547.9117415287628,0.08552631578947367
44,550.7092198581558,0.09868421052631582
45,550.7092198581558,0.09210526315789469
46,550.7092198581558,0.08552631578947367
47,553.5066981875493,0.09868421052631582
48,556.3041765169423,0.10526315789473684
49,556.3041765169423,0.09868421052631582
50,559.1016548463358,0.09868421052631582
51,559.1016548463358,0.10526315789473684
52,561.8991331757288,0.09868421052631582
53,564.6966115051223,0.09868421052631582
54,564.6966115051223,0.09210526315789469
55,567.4940898345153,0.09210526315789469
56,567.4940898345153,0.08552631578947367
57,570.2915681639088,0.08552631578947367
58,570.2915681639088,0.07236842105263153
59,570.2915681639088,0.07894736842105265
60,573.0890464933018,0.07236842105263153
61,575.8865248226948,0.07236842105263153
62,575.8865248226948,0.06578947368421051
63,578.6840031520883,0.06578947368421051
64,581.4814814814813,0.06578947368421051
65,584.2789598108748,0.06578947368421051
66,587.0764381402678,0.06578947368421051
67,589.8739164696613,0.06578947368421051
68,589.8739164696613,0.05921052631578949
69,592.6713947990543,0.05921052631578949
70,595.4688731284477,0.05921052631578949
71,598.2663514578408,0.06578947368421051
72,598.2663514578408,0.05921052631578949
73,601.0638297872342,0.06578947368421051
74,601.0638297872342,0.07236842105263153
75,603.8613081166272,0.06578947368421051
76,603.8613081166272,0.07236842105263153
77,606.6587864460207,0.06578947368421051
78,609.4562647754137,0.06578947368421051
79,612.2537431048067,0.06578947368421051
80,615.0512214342002,0.06578947368421051
81,617.8486997635932,0.06578947368421051
82,620.6461780929867,0.06578947368421051
83,623.4436564223797,0.06578947368421051
84,626.2411347517732,0.06578947368421051
85,629.0386130811662,0.06578947368421051
86,629.0386130811662,0.05921052631578949
87,631.8360914105597,0.05921052631578949
88,634.6335697399527,0.05921052631578949
89,637.4310480693462,0.052631578947368474
90,637.4310480693462,0.05921052631578949
91,640.2285263987392,0.052631578947368474
92,643.0260047281322,0.052631578947368474
93,645.8234830575257,0.052631578947368474
94,645.8234830575257,0.046052631578947345
95,648.6209613869187,0.046052631578947345
96,651.4184397163122,0.046052631578947345
97,654.2159180457052,0.046052631578947345
98,657.0133963750986,0.046052631578947345
99,659.8108747044917,0.03947368421052633
100,659.8108747044917,0.046052631578947345
101,662.6083530338851,0.03947368421052633
102,665.4058313632781,0.03947368421052633
103,668.2033096926716,0.03947368421052633
104,671.0007880220646,0.03947368421052633
105,673.7982663514576,0.03947368421052633
106,676.5957446808511,0.03947368421052633
107,679.3932230102441,0.03947368421052633
108,682.1907013396376,0.03947368421052633
109,684.9881796690306,0.03947368421052633
110,687.7856579984241,0.03947368421052633
111,690.5831363278171,0.03947368421052633
112,690.5831363278171,0.046052631578947345
113,693.3806146572106,0.046052631578947345
114,696.1780929866036,0.046052631578947345
115,696.1780929866036,0.052631578947368474
116,698.9755713159971,0.05921052631578949
117,698.9755713159971,0.052631578947368474
118,701.7730496453901,0.05921052631578949
119,704.5705279747831,0.05921052631578949
120,707.3680063041766,0.052631578947368474
121,707.3680063041766,0.05921052631578949
122,710.1654846335696,0.052631578947368474
123,712.962962962963,0.052631578947368474
124,715.7604412923561,0.052631578947368474
125,718.5579196217495,0.052631578947368474
126,721.3553979511425,0.052631578947368474
127,724.152876280536,0.052631578947368474
128,726.950354609929,0.052631578947368474
129,729.7478329393225,0.052631578947368474
130,732.5453112687155,0.052631578947368474
131,735.3427895981085,0.052631578947368474
132,738.140267927502,0.052631578947368474
133,740.937746256895,0.052631578947368474
134,743.7352245862885,0.05921052631578949
135,743.7352245862885,0.052631578947368474
136,746.5327029156815,0.05921052631578949
137,749.330181245075,0.05921052631578949
138,752.127659574468,0.05921052631578949
139,754.9251379038615,0.05921052631578949
140,754.9251379038615,0.07236842105263153
141,754.9251379038615,0.06578947368421051
142,757.7226162332545,0.07894736842105265
143,757.7226162332545,0.07236842105263153
144,760.520094562648,0.07894736842105265
145,760.520094562648,0.08552631578947367
146,763.317572892041,0.09868421052631582
147,763.317572892041,0.09210526315789469
148,763.317572892041,0.08552631578947367
149,766.115051221434,0.09868421052631582
150,768.9125295508275,0.08552631578947367
151,768.9125295508275,0.09868421052631582
152,768.9125295508275,0.09210526315789469
153,771.7100078802205,0.07894736842105265
154,771.7100078802205,0.08552631578947367
155,774.507486209614,0.07894736842105265
156,774.507486209614,0.07236842105263153
157,777.304964539007,0.07236842105263153
158,777.304964539007,0.06578947368421051
159,780.1024428684004,0.06578947368421051
160,782.8999211977934,0.05921052631578949
161,782.8999211977934,0.06578947368421051
162,785.6973995271869,0.05921052631578949
163,788.4948778565799,0.05921052631578949
164,788.4948778565799,0.052631578947368474
165,791.2923561859734,0.052631578947368474
166,794.0898345153664,0.046052631578947345
167,794.0898345153664,0.052631578947368474
168,796.8873128447594,0.046052631578947345
169,799.6847911741529,0.046052631578947345
170,799.6847911741529,0.052631578947368474
171,802.4822695035459,0.052631578947368474
172,802.4822695035459,0.05921052631578949
173,805.2797478329394,0.06578947368421051
174,805.2797478329394,0.07236842105263153
175,805.2797478329394,0.05921052631578949
176,808.0772261623324,0.07236842105263153
177,808.0772261623324,0.07894736842105265
178,810.8747044917259,0.07894736842105265
179,810.8747044917259,0.08552631578947367
180,813.6721828211189,0.08552631578947367
181,816.4696611505124,0.08552631578947367
182,819.2671394799054,0.07894736842105265
183,819.2671394799054,0.08552631578947367
184,819.2671394799054,0.07236842105263153
185,822.0646178092989,0.07236842105263153
186,822.0646178092989,0.06578947368421051
187,824.8620961386919,0.06578947368421051
188,824.8620961386919,0.05921052631578949
189,824.8620961386919,0.052631578947368474
190,827.6595744680849,0.046052631578947345
191,827.6595744680849,0.052631578947368474
192,830.4570527974784,0.03947368421052633
193,830.4570527974784,0.046052631578947345
194,833.2545311268714,0.03947368421052633
195,836.0520094562648,0.03947368421052633
196,836.0520094562648,0.03289473684210531
197,838.8494877856579,0.03289473684210531
198,841.6469661150513,0.03947368421052633
199,841.6469661150513,0.03289473684210531
200,844.4444444444443,0.03947368421052633
201,847.2419227738378,0.03947368421052633
202,850.0394011032308,0.046052631578947345
203,850.0394011032308,0.03947368421052633
204,852.8368794326243,0.052631578947368474
205,852.8368794326243,0.046052631578947345
206,855.6343577620173,0.05921052631578949
207,855.6343577620173,0.052631578947368474
208,858.4318360914103,0.05921052631578949
209,861.2293144208038,0.06578947368421051
210,861.2293144208038,0.05921052631578949
211,864.0267927501968,0.06578947368421051
212,864.0267927501968,0.07236842105263153
213,866.8242710795903,0.07894736842105265
214,866.8242710795903,0.07236842105263153
215,869.6217494089833,0.07894736842105265
216,869.6217494089833,0.07236842105263153
217,872.4192277383768,0.07236842105263153
218,875.2167060677698,0.07236842105263153
219,878.0141843971633,0.07236842105263153
220,878.0141843971633,0.06578947368421051
221,880.8116627265563,0.05921052631578949
222,880.8116627265563,0.06578947368421051
223,883.6091410559497,0.05921052631578949
224,883.6091410559497,0.052631578947368474
225,886.4066193853428,0.052631578947368474
226,886.4066193853428,0.046052631578947345
227,889.2040977147362,0.046052631578947345
228,892.0015760441293,0.046052631578947345
229,894.7990543735223,0.046052631578947345
230,897.5965327029157,0.046052631578947345
231,897.5965327029157,0.052631578947368474
232,900.3940110323088,0.052631578947368474
233,903.1914893617022,0.052631578947368474
234,905.9889676910952,0.052631578947368474
235,905.9889676910952,0.05921052631578949
236,908.7864460204887,0.05921052631578949
237,911.5839243498817,0.05921052631578949
238,911.5839243498817,0.06578947368421051
239,911.5839243498817,0.07236842105263153
240,914.3814026792752,0.07236842105263153
241,917.1788810086682,0.07236842105263153
242,919.9763593380617,0.07236842105263153
243,922.7738376674547,0.07236842105263153
244,922.7738376674547,0.07894736842105265
245,925.5713159968477,0.07894736842105265
246,928.3687943262412,0.08552631578947367
247,928.3687943262412,0.07894736842105265
248,931.1662726556342,0.08552631578947367
249,933.9637509850277,0.08552631578947367
250,936.7612293144207,0.08552631578947367
251,939.5587076438142,0.08552631578947367
252,942.3561859732072,0.08552631578947367
253,942.3561859732072,0.09210526315789469
254,945.1536643026006,0.09210526315789469
255,947.9511426319937,0.09868421052631582
256,947.9511426319937,0.09210526315789469
257,950.7486209613871,0.09868421052631582
258,950.7486209613871,0.10526315789473684
259,953.5460992907801,0.10526315789473684
260,956.3435776201732,0.10526315789473684
261,959.1410559495666,0.10526315789473684
262,961.9385342789597,0.10526315789473684
263,964.7360126083531,0.10526315789473684
264,967.5334909377461,0.10526315789473684
265,970.3309692671396,0.10526315789473684
266,973.1284475965326,0.11184210526315785
267,973.1284475965326,0.10526315789473684
268,975.9259259259261,0.11184210526315785
269,978.7234042553191,0.11184210526315785
270,981.5208825847126,0.11184210526315785
271,981.5208825847126,0.11842105263157898
272,984.3183609141056,0.11842105263157898
273,987.1158392434986,0.11842105263157898
274,987.1158392434986,0.125
275,989.9133175728921,0.13157894736842102
276,989.9133175728921,0.125
277,992.7107959022851,0.13157894736842102
278,995.5082742316786,0.13157894736842102
279,998.3057525610716,0.125
280,998.3057525610716,0.13157894736842102
281,1001.103230890465,0.125
282,1003.9007092198581,0.13157894736842102
283,1003.9007092198581,0.125
284,1006.6981875492515,0.13157894736842102
285,1009.4956658786446,0.13157894736842102
286,1009.4956658786446,0.13815789473684215
287,1012.293144208038,0.13815789473684215
288,1015.090622537431,0.13815789473684215
289,1017.8881008668241,0.14473684210526316
290,1017.8881008668241,0.13815789473684215
291,1020.6855791962175,0.14473684210526316
292,1023.4830575256105,0.14473684210526316
293,1026.280535855004,0.14473684210526316
294,1029.078014184397,0.14473684210526316
295,1029.078014184397,0.15131578947368418
296,1031.8754925137905,0.15131578947368418
297,1034.6729708431835,0.1578947368421053
298,1034.6729708431835,0.15131578947368418
299,1037.470449172577,0.1578947368421053
300,1037.470449172577,0.16447368421052633
301,1040.26792750197,0.17105263157894735
302,1040.26792750197,0.16447368421052633
303,1040.26792750197,0.17763157894736847
304,1043.0654058313635,0.17763157894736847
305,1043.0654058313635,0.1842105263157895
306,1045.8628841607565,0.1907894736842105
307,1045.8628841607565,0.1842105263157895
308,1048.6603624901495,0.20394736842105265
309,1048.6603624901495,0.1907894736842105
310,1048.6603624901495,0.21052631578947367
311,1048.6603624901495,0.19736842105263153
312,1048.6603624901495,0.2171052631578947
313,1051.457840819543,0.2171052631578947
314,1051.457840819543,0.22368421052631582
315,1051.457840819543,0.23026315789473684
316,1051.457840819543,0.23684210526315785
317,1054.255319148936,0.26973684210526316
318,1054.255319148936,0.26315789473684215
319,1054.255319148936,0.24342105263157898
320,1054.255319148936,0.256578947368421
321,1054.255319148936,0.25
322,1054.255319148936,0.23684210526315785
323,1054.255319148936,0.2763157894736842
324,1057.0527974783295,0.2828947368421053
325,1057.0527974783295,0.3026315789473685
326,1057.0527974783295,0.2894736842105263
327,1057.0527974783295,0.29605263157894735
328,1057.0527974783295,0.2763157894736842
329,1059.8502758077225,0.3092105263157895
330,1059.8502758077225,0.3026315789473685
331,1059.8502758077225,0.3157894736842105
332,1059.8502758077225,0.3223684210526315
333,1059.8502758077225,0.32894736842105265
334,1059.8502758077225,0.3355263157894737
335,1062.647754137116,0.3421052631578947
336,1062.647754137116,0.3355263157894737
337,1065.445232466509,0.3421052631578947
338,1068.2427107959024,0.3486842105263158
339,1068.2427107959024,0.3421052631578947
340,1071.0401891252955,0.35526315789473684
341,1071.0401891252955,0.3486842105263158
342,1073.837667454689,0.35526315789473684
343,1073.837667454689,0.368421052631579
344,1073.837667454689,0.38815789473684215
345,1073.837667454689,0.375
346,1073.837667454689,0.381578947368421
347,1073.837667454689,0.36184210526315785
348,1076.635145784082,0.4078947368421053
349,1076.635145784082,0.38815789473684215
350,1076.635145784082,0.4013157894736842
351,1076.635145784082,0.39473684210526316
352,1079.432624113475,0.4078947368421053
353,1079.432624113475,0.4144736842105263
354,1079.432624113475,0.42105263157894735
355,1082.2301024428684,0.42105263157894735
356,1085.0275807722614,0.4276315789473685
357,1085.0275807722614,0.42105263157894735
358,1087.825059101655,0.4276315789473685
359,1087.825059101655,0.4407894736842105
360,1087.825059101655,0.4342105263157895
361,1090.622537431048,0.4736842105263158
362,1090.622537431048,0.4605263157894737
363,1090.622537431048,0.4473684210526315
364,1090.622537431048,0.4407894736842105
365,1090.622537431048,0.4671052631578947
366,1090.622537431048,0.45394736842105265
367,1093.4200157604414,0.48684210526315785
368,1093.4200157604414,0.493421052631579
369,1093.4200157604414,0.48026315789473684
370,1093.4200157604414,0.4736842105263158
371,1096.2174940898344,0.513157894736842
372,1096.2174940898344,0.493421052631579
373,1096.2174940898344,0.5263157894736843
374,1096.2174940898344,0.506578947368421
375,1096.2174940898344,0.5
376,1096.2174940898344,0.5197368421052632
377,1099.014972419228,0.5328947368421053
378,1099.014972419228,0.5394736842105263
379,1099.014972419228,0.5460526315789473
380,1099.014972419228,0.5263157894736843
381,1101.812450748621,0.5526315789473684
382,1101.812450748621,0.5460526315789473
383,1101.812450748621,0.5592105263157895
384,1101.812450748621,0.5657894736842105
385,1104.6099290780144,0.5921052631578947
386,1104.6099290780144,0.5855263157894737
387,1104.6099290780144,0.5789473684210527
388,1104.6099290780144,0.5723684210526316
389,1104.6099290780144,0.5657894736842105
390,1110.2048857368004,0.5789473684210527
391,1110.2048857368004,0.5723684210526316
392,1110.2048857368004,0.5921052631578947
393,1110.2048857368004,0.5855263157894737
394,1113.0023640661939,0.5526315789473684
395,1113.0023640661939,0.5657894736842105
396,1113.0023640661939,0.5592105263157895
397,1113.0023640661939,0.5723684210526316
398,1115.799842395587,0.5
399,1115.799842395587,0.506578947368421
400,1115.799842395587,0.5328947368421053
401,1115.799842395587,0.513157894736842
402,1115.799842395587,0.5197368421052632
403,1115.799842395587,0.5263157894736843
404,1115.799842395587,0.493421052631579
405,1115.799842395587,0.5394736842105263
406,1115.799842395587,0.5460526315789473
407,1115.799842395587,0.5526315789473684
408,1118.5973207249804,0.48684210526315785
409,1118.5973207249804,0.4671052631578947
410,1118.5973207249804,0.48026315789473684
411,1118.5973207249804,0.4736842105263158
412,1118.5973207249804,0.4605263157894737
413,1118.5973207249804,0.493421052631579
414,1121.3947990543734,0.4605263157894737
415,1121.3947990543734,0.381578947368421
416,1121.3947990543734,0.38815789473684215
417,1121.3947990543734,0.4342105263157895
418,1121.3947990543734,0.4407894736842105
419,1121.3947990543734,0.39473684210526316
420,1121.3947990543734,0.4276315789473685
421,1121.3947990543734,0.42105263157894735
422,1121.3947990543734,0.45394736842105265
423,1121.3947990543734,0.4013157894736842
424,1121.3947990543734,0.4144736842105263
425,1121.3947990543734,0.4473684210526315
426,1121.3947990543734,0.4078947368421053
427,1124.1922773837669,0.3421052631578947
428,1124.1922773837669,0.368421052631579
429,1124.1922773837669,0.36184210526315785
430,1124.1922773837669,0.381578947368421
431,1124.1922773837669,0.375
432,1124.1922773837669,0.35526315789473684
433,1124.1922773837669,0.3486842105263158
434,1126.9897557131599,0.3157894736842105
435,1126.9897557131599,0.3421052631578947
436,1126.9897557131599,0.3223684210526315
437,1126.9897557131599,0.3092105263157895
438,1126.9897557131599,0.32894736842105265
439,1126.9897557131599,0.3026315789473685
440,1126.9897557131599,0.3355263157894737
441,1129.7872340425533,0.256578947368421
442,1129.7872340425533,0.29605263157894735
443,1129.7872340425533,0.2894736842105263
444,1129.7872340425533,0.23684210526315785
445,1129.7872340425533,0.26973684210526316
446,1129.7872340425533,0.24342105263157898
447,1129.7872340425533,0.2828947368421053
448,1129.7872340425533,0.2763157894736842
449,1129.7872340425533,0.26315789473684215
450,1129.7872340425533,0.3026315789473685
451,1129.7872340425533,0.25
452,1132.5847123719464,0.2171052631578947
453,1132.5847123719464,0.23026315789473684
454,1132.5847123719464,0.22368421052631582
455,1132.5847123719464,0.23684210526315785
456,1132.5847123719464,0.21052631578947367
457,1135.3821907013398,0.17105263157894735
458,1135.3821907013398,0.19736842105263153
459,1135.3821907013398,0.17763157894736847
460,1135.3821907013398,0.1842105263157895
461,1135.3821907013398,0.21052631578947367
462,1135.3821907013398,0.1907894736842105
463,1135.3821907013398,0.20394736842105265
464,1138.1796690307328,0.1578947368421053
465,1138.1796690307328,0.17105263157894735
466,1138.1796690307328,0.16447368421052633
467,1140.9771473601263,0.1578947368421053
468,1140.9771473601263,0.13815789473684215
