,wavenumbers,absorbance
0,452.797478329393,0.09868421052631582
1,455.5949566587865,0.09868421052631582
2,458.3924349881795,0.09868421052631582
3,461.189913317573,0.09868421052631582
4,463.987391646966,0.09868421052631582
5,466.78486997635946,0.09868421052631582
6,469.5823483057525,0.09868421052631582
7,472.37982663514595,0.09868421052631582
8,475.17730496453896,0.09868421052631582
9,477.97478329393243,0.09868421052631582
10,480.77226162332545,0.09868421052631582
11,483.56973995271846,0.09868421052631582
12,486.36721828211193,0.09868421052631582
13,489.16469661150495,0.09868421052631582
14,491.9621749408984,0.09868421052631582
15,494.75965327029144,0.09868421052631582
16,497.5571315996849,0.09868421052631582
17,497.5571315996849,0.09210526315789469
18,497.5571315996849,0.08552631578947367
19,500.3546099290779,0.08552631578947367
20,500.3546099290779,0.06578947368421051
21,500.3546099290779,0.07236842105263153
22,500.3546099290779,0.07894736842105265
23,503.1520882584714,0.06578947368421051
24,505.9495665878644,0.06578947368421051
25,505.9495665878644,0.05921052631578949
26,508.7470449172579,0.06578947368421051
27,508.7470449172579,0.05921052631578949
28,511.5445232466509,0.06578947368421051
29,514.3420015760439,0.07236842105263153
30,514.3420015760439,0.07894736842105265
31,514.3420015760439,0.08552631578947367
32,514.3420015760439,0.06578947368421051
33,517.1394799054374,0.09210526315789469
34,517.1394799054374,0.08552631578947367
35,519.9369582348304,0.09210526315789469
36,519.9369582348304,0.09868421052631582
37,519.9369582348304,0.11184210526315785
38,519.9369582348304,0.10526315789473684
39,522.7344365642239,0.11184210526315785
40,525.5319148936169,0.10526315789473684
41,525.5319148936169,0.11184210526315785
42,525.5319148936169,0.09210526315789469
43,525.5319148936169,0.09868421052631582
44,528.3293932230104,0.09210526315789469
45,528.3293932230104,0.07894736842105265
46,528.3293932230104,0.08552631578947367
47,531.1268715524034,0.07894736842105265
48,531.1268715524034,0.06578947368421051
49,531.1268715524034,0.07236842105263153
50,531.1268715524034,0.05921052631578949
51,533.9243498817968,0.046052631578947345
52,533.9243498817968,0.03289473684210531
53,533.9243498817968,0.052631578947368474
54,533.9243498817968,0.03947368421052633
55,536.7218282111899,0.03289473684210531
56,536.7218282111899,0.02631578947368418
57,539.5193065405833,0.02631578947368418
58,539.5193065405833,0.019736842105263164
59,542.3167848699763,0.019736842105263164
60,545.1142631993694,0.019736842105263164
61,547.9117415287628,0.019736842105263164
62,550.7092198581558,0.019736842105263164
63,550.7092198581558,0.02631578947368418
64,553.5066981875493,0.02631578947368418
65,556.3041765169423,0.02631578947368418
66,556.3041765169423,0.03289473684210531
67,559.1016548463358,0.03289473684210531
68,559.1016548463358,0.03947368421052633
69,561.8991331757288,0.03947368421052633
70,561.8991331757288,0.046052631578947345
71,564.6966115051223,0.052631578947368474
72,564.6966115051223,0.046052631578947345
73,567.4940898345153,0.05921052631578949
74,567.4940898345153,0.052631578947368474
75,570.2915681639088,0.06578947368421051
76,570.2915681639088,0.05921052631578949
77,573.0890464933018,0.06578947368421051
78,573.0890464933018,0.07236842105263153
79,575.8865248226948,0.07236842105263153
80,578.6840031520883,0.07236842105263153
81,581.4814814814813,0.08552631578947367
82,581.4814814814813,0.07894736842105265
83,581.4814814814813,0.07236842105263153
84,584.2789598108748,0.09210526315789469
85,584.2789598108748,0.08552631578947367
86,587.0764381402678,0.10526315789473684
87,587.0764381402678,0.09210526315789469
88,587.0764381402678,0.09868421052631582
89,589.8739164696613,0.10526315789473684
90,589.8739164696613,0.125
91,589.8739164696613,0.11842105263157898
92,589.8739164696613,0.11184210526315785
93,589.8739164696613,0.13157894736842102
94,592.6713947990543,0.13157894736842102
95,592.6713947990543,0.125
96,595.4688731284477,0.11184210526315785
97,595.4688731284477,0.11842105263157898
98,595.4688731284477,0.09868421052631582
99,595.4688731284477,0.125
100,595.4688731284477,0.10526315789473684
101,598.2663514578408,0.09868421052631582
102,598.2663514578408,0.09210526315789469
103,601.0638297872342,0.09868421052631582
104,601.0638297872342,0.09210526315789469
105,603.8613081166272,0.09868421052631582
106,606.6587864460207,0.09868421052631582
107,606.6587864460207,0.09210526315789469
108,609.4562647754137,0.08552631578947367
109,609.4562647754137,0.09210526315789469
110,612.2537431048067,0.08552631578947367
111,612.2537431048067,0.07894736842105265
112,612.2537431048067,0.07236842105263153
113,615.0512214342002,0.07236842105263153
114,615.0512214342002,0.06578947368421051
115,617.8486997635932,0.06578947368421051
116,620.6461780929867,0.05921052631578949
117,620.6461780929867,0.06578947368421051
118,623.4436564223797,0.05921052631578949
119,626.2411347517732,0.052631578947368474
120,626.2411347517732,0.05921052631578949
121,629.0386130811662,0.052631578947368474
122,631.8360914105597,0.046052631578947345
123,631.8360914105597,0.052631578947368474
124,634.6335697399527,0.046052631578947345
125,637.4310480693462,0.046052631578947345
126,640.2285263987392,0.046052631578947345
127,643.0260047281322,0.046052631578947345
128,645.8234830575257,0.046052631578947345
129,648.6209613869187,0.046052631578947345
130,651.4184397163122,0.046052631578947345
131,654.2159180457052,0.046052631578947345
132,654.2159180457052,0.052631578947368474
133,657.0133963750986,0.052631578947368474
134,659.8108747044917,0.05921052631578949
135,659.8108747044917,0.052631578947368474
136,662.6083530338851,0.06578947368421051
137,662.6083530338851,0.05921052631578949
138,665.4058313632781,0.07236842105263153
139,665.4058313632781,0.06578947368421051
140,668.2033096926716,0.07894736842105265
141,668.2033096926716,0.07236842105263153
142,671.0007880220646,0.07894736842105265
143,673.7982663514576,0.07894736842105265
144,673.7982663514576,0.08552631578947367
145,676.5957446808511,0.08552631578947367
146,676.5957446808511,0.09210526315789469
147,679.3932230102441,0.09210526315789469
148,679.3932230102441,0.09868421052631582
149,682.1907013396376,0.13815789473684215
150,682.1907013396376,0.125
151,682.1907013396376,0.14473684210526316
152,682.1907013396376,0.10526315789473684
153,682.1907013396376,0.09868421052631582
154,682.1907013396376,0.13157894736842102
155,682.1907013396376,0.11184210526315785
156,682.1907013396376,0.11842105263157898
157,684.9881796690306,0.1842105263157895
158,684.9881796690306,0.15131578947368418
159,684.9881796690306,0.1907894736842105
160,684.9881796690306,0.17763157894736847
161,684.9881796690306,0.16447368421052633
162,684.9881796690306,0.1578947368421053
163,684.9881796690306,0.17105263157894735
164,684.9881796690306,0.14473684210526316
165,687.7856579984241,0.2894736842105263
166,687.7856579984241,0.1907894736842105
167,687.7856579984241,0.20394736842105265
168,687.7856579984241,0.3223684210526315
169,687.7856579984241,0.3157894736842105
170,687.7856579984241,0.23026315789473684
171,687.7856579984241,0.3026315789473685
172,687.7856579984241,0.3421052631578947
173,687.7856579984241,0.4078947368421053
174,687.7856579984241,0.4013157894736842
175,687.7856579984241,0.2171052631578947
176,687.7856579984241,0.4144736842105263
177,687.7856579984241,0.26315789473684215
178,687.7856579984241,0.4276315789473685
179,687.7856579984241,0.21052631578947367
180,687.7856579984241,0.256578947368421
181,687.7856579984241,0.42105263157894735
182,687.7856579984241,0.25
183,687.7856579984241,0.3092105263157895
184,687.7856579984241,0.35526315789473684
185,687.7856579984241,0.3486842105263158
186,687.7856579984241,0.38815789473684215
187,687.7856579984241,0.39473684210526316
188,687.7856579984241,0.4407894736842105
189,687.7856579984241,0.24342105263157898
190,687.7856579984241,0.3355263157894737
191,687.7856579984241,0.26973684210526316
192,687.7856579984241,0.381578947368421
193,687.7856579984241,0.19736842105263153
194,687.7856579984241,0.2828947368421053
195,687.7856579984241,0.23684210526315785
196,687.7856579984241,0.36184210526315785
197,687.7856579984241,0.22368421052631582
198,687.7856579984241,0.29605263157894735
199,687.7856579984241,0.2763157894736842
200,687.7856579984241,0.368421052631579
201,687.7856579984241,0.4342105263157895
202,687.7856579984241,0.375
203,687.7856579984241,0.32894736842105265
204,690.5831363278171,0.493421052631579
205,690.5831363278171,0.5657894736842105
206,690.5831363278171,0.506578947368421
207,690.5831363278171,0.5592105263157895
208,690.5831363278171,0.5
209,690.5831363278171,0.5460526315789473
210,690.5831363278171,0.48026315789473684
211,690.5831363278171,0.5789473684210527
212,690.5831363278171,0.5394736842105263
213,690.5831363278171,0.5526315789473684
214,690.5831363278171,0.5723684210526316
215,690.5831363278171,0.4736842105263158
216,690.5831363278171,0.45394736842105265
217,690.5831363278171,0.5197368421052632
218,690.5831363278171,0.4671052631578947
219,690.5831363278171,0.5328947368421053
220,690.5831363278171,0.5855263157894737
221,690.5831363278171,0.4605263157894737
222,690.5831363278171,0.513157894736842
223,690.5831363278171,0.6052631578947368
224,690.5831363278171,0.48684210526315785
225,690.5831363278171,0.4473684210526315
226,690.5831363278171,0.5921052631578947
227,690.5831363278171,0.5263157894736843
228,690.5831363278171,0.4407894736842105
229,690.5831363278171,0.5986842105263157
230,693.3806146572106,0.638157894736842
231,693.3806146572106,0.6644736842105263
232,693.3806146572106,0.6513157894736843
233,693.3806146572106,0.618421052631579
234,693.3806146572106,0.6710526315789473
235,693.3806146572106,0.611842105263158
236,693.3806146572106,0.6776315789473684
237,693.3806146572106,0.6842105263157895
238,693.3806146572106,0.631578947368421
239,693.3806146572106,0.6447368421052632
240,693.3806146572106,0.625
241,693.3806146572106,0.6052631578947368
242,693.3806146572106,0.6578947368421053
243,696.1780929866036,0.5723684210526316
244,696.1780929866036,0.6513157894736843
245,696.1780929866036,0.5921052631578947
246,696.1780929866036,0.6578947368421053
247,696.1780929866036,0.611842105263158
248,696.1780929866036,0.5789473684210527
249,696.1780929866036,0.618421052631579
250,696.1780929866036,0.5855263157894737
251,696.1780929866036,0.625
252,696.1780929866036,0.5986842105263157
253,696.1780929866036,0.6447368421052632
254,696.1780929866036,0.631578947368421
255,696.1780929866036,0.6052631578947368
256,696.1780929866036,0.6644736842105263
257,696.1780929866036,0.638157894736842
258,698.9755713159971,0.48026315789473684
259,698.9755713159971,0.42105263157894735
260,698.9755713159971,0.368421052631579
261,698.9755713159971,0.5
262,698.9755713159971,0.4144736842105263
263,698.9755713159971,0.48684210526315785
264,698.9755713159971,0.5328947368421053
265,698.9755713159971,0.45394736842105265
266,698.9755713159971,0.381578947368421
267,698.9755713159971,0.4342105263157895
268,698.9755713159971,0.513157894736842
269,698.9755713159971,0.4605263157894737
270,698.9755713159971,0.4671052631578947
271,698.9755713159971,0.5197368421052632
272,698.9755713159971,0.4407894736842105
273,698.9755713159971,0.506578947368421
274,698.9755713159971,0.39473684210526316
275,698.9755713159971,0.5394736842105263
276,698.9755713159971,0.493421052631579
277,698.9755713159971,0.4013157894736842
278,698.9755713159971,0.38815789473684215
279,698.9755713159971,0.4276315789473685
280,698.9755713159971,0.5657894736842105
281,698.9755713159971,0.36184210526315785
282,698.9755713159971,0.375
283,698.9755713159971,0.5723684210526316
284,698.9755713159971,0.5460526315789473
285,698.9755713159971,0.5592105263157895
286,698.9755713159971,0.4078947368421053
287,698.9755713159971,0.5263157894736843
288,698.9755713159971,0.4736842105263158
289,698.9755713159971,0.5526315789473684
290,698.9755713159971,0.4473684210526315
291,701.7730496453901,0.36184210526315785
292,701.7730496453901,0.26973684210526316
293,701.7730496453901,0.2763157894736842
294,701.7730496453901,0.2894736842105263
295,701.7730496453901,0.3157894736842105
296,701.7730496453901,0.3092105263157895
297,701.7730496453901,0.3223684210526315
298,701.7730496453901,0.3421052631578947
299,701.7730496453901,0.29605263157894735
300,701.7730496453901,0.32894736842105265
301,701.7730496453901,0.35526315789473684
302,701.7730496453901,0.3026315789473685
303,701.7730496453901,0.3486842105263158
304,701.7730496453901,0.2828947368421053
305,701.7730496453901,0.3355263157894737
306,704.5705279747831,0.23684210526315785
307,704.5705279747831,0.20394736842105265
308,704.5705279747831,0.24342105263157898
309,704.5705279747831,0.256578947368421
310,704.5705279747831,0.26315789473684215
311,704.5705279747831,0.23026315789473684
312,704.5705279747831,0.21052631578947367
313,704.5705279747831,0.25
314,704.5705279747831,0.26973684210526316
315,704.5705279747831,0.2171052631578947
316,704.5705279747831,0.22368421052631582
317,707.3680063041766,0.17105263157894735
318,707.3680063041766,0.17763157894736847
319,707.3680063041766,0.1842105263157895
320,707.3680063041766,0.1578947368421053
321,707.3680063041766,0.20394736842105265
322,707.3680063041766,0.1907894736842105
323,707.3680063041766,0.15131578947368418
324,707.3680063041766,0.19736842105263153
325,707.3680063041766,0.16447368421052633
326,710.1654846335696,0.15131578947368418
327,710.1654846335696,0.14473684210526316
328,712.962962962963,0.1578947368421053
329,712.962962962963,0.16447368421052633
330,712.962962962963,0.15131578947368418
331,712.962962962963,0.14473684210526316
332,715.7604412923561,0.17105263157894735
333,715.7604412923561,0.17763157894736847
334,715.7604412923561,0.1907894736842105
335,715.7604412923561,0.1842105263157895
336,715.7604412923561,0.16447368421052633
337,718.5579196217495,0.2763157894736842
338,718.5579196217495,0.23026315789473684
339,718.5579196217495,0.1907894736842105
340,718.5579196217495,0.26315789473684215
341,718.5579196217495,0.23684210526315785
342,718.5579196217495,0.29605263157894735
343,718.5579196217495,0.22368421052631582
344,718.5579196217495,0.26973684210526316
345,718.5579196217495,0.3026315789473685
346,718.5579196217495,0.19736842105263153
347,718.5579196217495,0.2894736842105263
348,718.5579196217495,0.24342105263157898
349,718.5579196217495,0.2828947368421053
350,718.5579196217495,0.25
351,718.5579196217495,0.21052631578947367
352,718.5579196217495,0.20394736842105265
353,718.5579196217495,0.2171052631578947
354,718.5579196217495,0.256578947368421
355,721.3553979511425,0.3223684210526315
356,721.3553979511425,0.3157894736842105
357,721.3553979511425,0.381578947368421
358,721.3553979511425,0.3486842105263158
359,721.3553979511425,0.3092105263157895
360,721.3553979511425,0.375
361,721.3553979511425,0.36184210526315785
362,721.3553979511425,0.35526315789473684
363,721.3553979511425,0.3026315789473685
364,721.3553979511425,0.32894736842105265
365,721.3553979511425,0.368421052631579
366,721.3553979511425,0.3355263157894737
367,721.3553979511425,0.3421052631578947
368,724.152876280536,0.4144736842105263
369,724.152876280536,0.38815789473684215
370,724.152876280536,0.506578947368421
371,724.152876280536,0.4736842105263158
372,724.152876280536,0.4276315789473685
373,724.152876280536,0.493421052631579
374,724.152876280536,0.4342105263157895
375,724.152876280536,0.5
376,724.152876280536,0.4671052631578947
377,724.152876280536,0.4013157894736842
378,724.152876280536,0.513157894736842
379,724.152876280536,0.42105263157894735
380,724.152876280536,0.48684210526315785
381,724.152876280536,0.48026315789473684
382,724.152876280536,0.39473684210526316
383,724.152876280536,0.4473684210526315
384,724.152876280536,0.45394736842105265
385,724.152876280536,0.4078947368421053
386,724.152876280536,0.4605263157894737
387,724.152876280536,0.4407894736842105
388,724.152876280536,0.381578947368421
389,726.950354609929,0.5394736842105263
390,726.950354609929,0.5197368421052632
391,726.950354609929,0.5328947368421053
392,726.950354609929,0.5263157894736843
393,726.950354609929,0.513157894736842
394,729.7478329393225,0.5394736842105263
395,729.7478329393225,0.5328947368421053
396,732.5453112687155,0.5328947368421053
397,732.5453112687155,0.493421052631579
398,732.5453112687155,0.5
399,732.5453112687155,0.5197368421052632
400,732.5453112687155,0.5263157894736843
401,732.5453112687155,0.513157894736842
402,732.5453112687155,0.506578947368421
403,735.3427895981085,0.48026315789473684
404,735.3427895981085,0.48684210526315785
405,735.3427895981085,0.4736842105263158
406,735.3427895981085,0.493421052631579
407,738.140267927502,0.4671052631578947
408,738.140267927502,0.45394736842105265
409,738.140267927502,0.4473684210526315
410,738.140267927502,0.4407894736842105
411,738.140267927502,0.4605263157894737
412,738.140267927502,0.4736842105263158
413,738.140267927502,0.4342105263157895
414,740.937746256895,0.42105263157894735
415,740.937746256895,0.4342105263157895
416,740.937746256895,0.4276315789473685
417,740.937746256895,0.4144736842105263
418,740.937746256895,0.4078947368421053
419,743.7352245862885,0.381578947368421
420,743.7352245862885,0.35526315789473684
421,743.7352245862885,0.375
422,743.7352245862885,0.368421052631579
423,743.7352245862885,0.4078947368421053
424,743.7352245862885,0.36184210526315785
425,743.7352245862885,0.38815789473684215
426,743.7352245862885,0.4013157894736842
427,743.7352245862885,0.39473684210526316
428,746.5327029156815,0.3355263157894737
429,746.5327029156815,0.35526315789473684
430,746.5327029156815,0.3421052631578947
431,746.5327029156815,0.3486842105263158
432,746.5327029156815,0.32894736842105265
433,749.330181245075,0.3026315789473685
434,749.330181245075,0.3223684210526315
435,749.330181245075,0.2894736842105263
436,749.330181245075,0.3092105263157895
437,749.330181245075,0.2828947368421053
438,749.330181245075,0.29605263157894735
439,749.330181245075,0.32894736842105265
440,749.330181245075,0.3157894736842105
441,749.330181245075,0.256578947368421
442,749.330181245075,0.2763157894736842
443,749.330181245075,0.26315789473684215
444,749.330181245075,0.26973684210526316
445,752.127659574468,0.21052631578947367
446,752.127659574468,0.24342105263157898
447,752.127659574468,0.22368421052631582
448,752.127659574468,0.2171052631578947
449,752.127659574468,0.23684210526315785
450,752.127659574468,0.256578947368421
451,752.127659574468,0.23026315789473684
452,752.127659574468,0.25
453,754.9251379038615,0.13157894736842102
454,754.9251379038615,0.20394736842105265
455,754.9251379038615,0.13815789473684215
456,754.9251379038615,0.21052631578947367
457,754.9251379038615,0.1907894736842105
458,754.9251379038615,0.16447368421052633
459,754.9251379038615,0.17763157894736847
460,754.9251379038615,0.14473684210526316
461,754.9251379038615,0.17105263157894735
462,754.9251379038615,0.19736842105263153
463,754.9251379038615,0.1842105263157895
464,754.9251379038615,0.1578947368421053
465,754.9251379038615,0.15131578947368418
466,754.9251379038615,0.125
467,757.7226162332545,0.125
468,757.7226162332545,0.09868421052631582
469,757.7226162332545,0.11842105263157898
470,757.7226162332545,0.10526315789473684
471,757.7226162332545,0.09210526315789469
472,757.7226162332545,0.11184210526315785
473,760.520094562648,0.08552631578947367
474,760.520094562648,0.07894736842105265
475,760.520094562648,0.07236842105263153
476,760.520094562648,0.09210526315789469
477,763.317572892041,0.05921052631578949
478,763.317572892041,0.07236842105263153
