,wavenumbers,absorbance
0,452.797478329393,0.03289473684210531
1,455.5949566587865,0.03947368421052633
2,455.5949566587865,0.03289473684210531
3,458.3924349881795,0.03947368421052633
4,461.189913317573,0.03947368421052633
5,463.987391646966,0.03947368421052633
6,466.78486997635946,0.03947368421052633
7,469.5823483057525,0.03947368421052633
8,472.37982663514595,0.03947368421052633
9,475.17730496453896,0.03947368421052633
10,477.97478329393243,0.03947368421052633
11,480.77226162332545,0.03947368421052633
12,483.56973995271846,0.03947368421052633
13,486.36721828211193,0.03947368421052633
14,489.16469661150495,0.03947368421052633
15,491.9621749408984,0.03947368421052633
16,494.75965327029144,0.03947368421052633
17,494.75965327029144,0.03289473684210531
18,497.5571315996849,0.03289473684210531
19,500.3546099290779,0.03289473684210531
20,503.1520882584714,0.03289473684210531
21,505.9495665878644,0.03289473684210531
22,508.7470449172579,0.03289473684210531
23,511.5445232466509,0.03289473684210531
24,514.3420015760439,0.03289473684210531
25,517.1394799054374,0.03289473684210531
26,519.9369582348304,0.03289473684210531
27,522.7344365642239,0.03289473684210531
28,522.7344365642239,0.03947368421052633
29,525.5319148936169,0.03947368421052633
30,528.3293932230104,0.03947368421052633
31,528.3293932230104,0.046052631578947345
32,531.1268715524034,0.046052631578947345
33,533.9243498817968,0.046052631578947345
34,536.7218282111899,0.046052631578947345
35,539.5193065405833,0.046052631578947345
36,539.5193065405833,0.052631578947368474
37,542.3167848699763,0.052631578947368474
38,545.1142631993694,0.052631578947368474
39,547.9117415287628,0.052631578947368474
40,550.7092198581558,0.052631578947368474
41,553.5066981875493,0.052631578947368474
42,556.3041765169423,0.052631578947368474
43,559.1016548463358,0.052631578947368474
44,561.8991331757288,0.046052631578947345
45,561.8991331757288,0.052631578947368474
46,564.6966115051223,0.046052631578947345
47,567.4940898345153,0.046052631578947345
48,570.2915681639088,0.046052631578947345
49,573.0890464933018,0.046052631578947345
50,575.8865248226948,0.046052631578947345
51,578.6840031520883,0.046052631578947345
52,578.6840031520883,0.03947368421052633
53,581.4814814814813,0.03947368421052633
54,584.2789598108748,0.03947368421052633
55,587.0764381402678,0.03947368421052633
56,589.8739164696613,0.03289473684210531
57,589.8739164696613,0.03947368421052633
58,592.6713947990543,0.03289473684210531
59,595.4688731284477,0.03289473684210531
60,598.2663514578408,0.03289473684210531
61,601.0638297872342,0.03289473684210531
62,603.8613081166272,0.03289473684210531
63,606.6587864460207,0.03289473684210531
64,606.6587864460207,0.046052631578947345
65,606.6587864460207,0.03947368421052633
66,609.4562647754137,0.06578947368421051
67,609.4562647754137,0.052631578947368474
68,609.4562647754137,0.05921052631578949
69,609.4562647754137,0.046052631578947345
70,609.4562647754137,0.07236842105263153
71,612.2537431048067,0.08552631578947367
72,612.2537431048067,0.07894736842105265
73,612.2537431048067,0.07236842105263153
74,615.0512214342002,0.08552631578947367
75,615.0512214342002,0.07236842105263153
76,615.0512214342002,0.07894736842105265
77,617.8486997635932,0.07236842105263153
78,617.8486997635932,0.06578947368421051
79,620.6461780929867,0.06578947368421051
80,620.6461780929867,0.05921052631578949
81,623.4436564223797,0.05921052631578949
82,626.2411347517732,0.03289473684210531
83,626.2411347517732,0.052631578947368474
84,626.2411347517732,0.046052631578947345
85,626.2411347517732,0.05921052631578949
86,626.2411347517732,0.03947368421052633
87,629.0386130811662,0.03289473684210531
88,631.8360914105597,0.03289473684210531
89,634.6335697399527,0.03289473684210531
90,637.4310480693462,0.03289473684210531
91,640.2285263987392,0.03289473684210531
92,643.0260047281322,0.03289473684210531
93,645.8234830575257,0.03289473684210531
94,648.6209613869187,0.03289473684210531
95,648.6209613869187,0.03947368421052633
96,651.4184397163122,0.046052631578947345
97,654.2159180457052,0.046052631578947345
98,657.0133963750986,0.05921052631578949
99,657.0133963750986,0.046052631578947345
100,657.0133963750986,0.052631578947368474
101,659.8108747044917,0.06578947368421051
102,659.8108747044917,0.05921052631578949
103,662.6083530338851,0.07236842105263153
104,662.6083530338851,0.06578947368421051
105,662.6083530338851,0.07894736842105265
106,665.4058313632781,0.08552631578947367
107,665.4058313632781,0.07894736842105265
108,668.2033096926716,0.09210526315789469
109,668.2033096926716,0.08552631578947367
110,668.2033096926716,0.10526315789473684
111,668.2033096926716,0.09868421052631582
112,671.0007880220646,0.11842105263157898
113,671.0007880220646,0.10526315789473684
114,671.0007880220646,0.11184210526315785
115,673.7982663514576,0.125
116,673.7982663514576,0.11842105263157898
117,676.5957446808511,0.13157894736842102
118,676.5957446808511,0.125
119,676.5957446808511,0.13815789473684215
120,679.3932230102441,0.14473684210526316
121,679.3932230102441,0.13815789473684215
122,682.1907013396376,0.1578947368421053
123,682.1907013396376,0.15131578947368418
124,682.1907013396376,0.14473684210526316
125,684.9881796690306,0.16447368421052633
126,684.9881796690306,0.1578947368421053
127,687.7856579984241,0.19736842105263153
128,687.7856579984241,0.17763157894736847
129,687.7856579984241,0.1907894736842105
130,687.7856579984241,0.16447368421052633
131,687.7856579984241,0.20394736842105265
132,687.7856579984241,0.21052631578947367
133,687.7856579984241,0.23684210526315785
134,687.7856579984241,0.23026315789473684
135,687.7856579984241,0.2171052631578947
136,687.7856579984241,0.17105263157894735
137,687.7856579984241,0.22368421052631582
138,687.7856579984241,0.1842105263157895
139,690.5831363278171,0.2763157894736842
140,690.5831363278171,0.32894736842105265
141,690.5831363278171,0.2828947368421053
142,690.5831363278171,0.26973684210526316
143,690.5831363278171,0.3223684210526315
144,690.5831363278171,0.35526315789473684
145,690.5831363278171,0.3486842105263158
146,690.5831363278171,0.24342105263157898
147,690.5831363278171,0.29605263157894735
148,690.5831363278171,0.36184210526315785
149,690.5831363278171,0.23684210526315785
150,690.5831363278171,0.3421052631578947
151,690.5831363278171,0.25
152,690.5831363278171,0.3026315789473685
153,690.5831363278171,0.3092105263157895
154,690.5831363278171,0.26315789473684215
155,690.5831363278171,0.3157894736842105
156,690.5831363278171,0.2894736842105263
157,690.5831363278171,0.3355263157894737
158,690.5831363278171,0.256578947368421
159,693.3806146572106,0.6842105263157895
160,693.3806146572106,0.6907894736842105
161,693.3806146572106,0.6973684210526316
162,693.3806146572106,0.7039473684210527
163,693.3806146572106,0.7105263157894737
164,693.3806146572106,0.381578947368421
165,693.3806146572106,0.5921052631578947
166,693.3806146572106,0.6710526315789473
167,693.3806146572106,0.5394736842105263
168,693.3806146572106,0.5328947368421053
169,693.3806146572106,0.4342105263157895
170,693.3806146572106,0.5263157894736843
171,693.3806146572106,0.5197368421052632
172,693.3806146572106,0.513157894736842
173,693.3806146572106,0.506578947368421
174,693.3806146572106,0.5460526315789473
175,693.3806146572106,0.5
176,693.3806146572106,0.4407894736842105
177,693.3806146572106,0.48684210526315785
178,693.3806146572106,0.48026315789473684
179,693.3806146572106,0.4736842105263158
180,693.3806146572106,0.4671052631578947
181,693.3806146572106,0.4605263157894737
182,693.3806146572106,0.45394736842105265
183,693.3806146572106,0.493421052631579
184,693.3806146572106,0.6776315789473684
185,693.3806146572106,0.5526315789473684
186,693.3806146572106,0.5657894736842105
187,693.3806146572106,0.6644736842105263
188,693.3806146572106,0.4144736842105263
189,693.3806146572106,0.6578947368421053
190,693.3806146572106,0.6447368421052632
191,693.3806146572106,0.638157894736842
192,693.3806146572106,0.631578947368421
193,693.3806146572106,0.42105263157894735
194,693.3806146572106,0.5592105263157895
195,693.3806146572106,0.625
196,693.3806146572106,0.611842105263158
197,693.3806146572106,0.6052631578947368
198,693.3806146572106,0.5986842105263157
199,693.3806146572106,0.4276315789473685
200,693.3806146572106,0.5855263157894737
201,693.3806146572106,0.5789473684210527
202,693.3806146572106,0.5723684210526316
203,693.3806146572106,0.618421052631579
204,693.3806146572106,0.7171052631578947
205,693.3806146572106,0.6513157894736843
206,693.3806146572106,0.4473684210526315
207,693.3806146572106,0.743421052631579
208,693.3806146572106,0.39473684210526316
209,693.3806146572106,0.75
210,693.3806146572106,0.8355263157894737
211,693.3806146572106,0.7631578947368421
212,693.3806146572106,0.8289473684210527
213,693.3806146572106,0.7697368421052632
214,693.3806146572106,0.736842105263158
215,693.3806146572106,0.8223684210526316
216,693.3806146572106,0.8157894736842105
217,693.3806146572106,0.7763157894736842
218,693.3806146572106,0.8092105263157895
219,693.3806146572106,0.8026315789473684
220,693.3806146572106,0.7960526315789473
221,693.3806146572106,0.7828947368421053
222,693.3806146572106,0.7894736842105263
223,693.3806146572106,0.4013157894736842
224,693.3806146572106,0.36184210526315785
225,693.3806146572106,0.756578947368421
226,693.3806146572106,0.38815789473684215
227,693.3806146572106,0.4078947368421053
228,693.3806146572106,0.7236842105263157
229,693.3806146572106,0.368421052631579
230,693.3806146572106,0.7302631578947368
231,693.3806146572106,0.375
232,696.1780929866036,0.7828947368421053
233,696.1780929866036,0.8157894736842105
234,696.1780929866036,0.8289473684210527
235,696.1780929866036,0.7763157894736842
236,696.1780929866036,0.8355263157894737
237,696.1780929866036,0.8092105263157895
238,696.1780929866036,0.8026315789473684
239,696.1780929866036,0.8223684210526316
240,696.1780929866036,0.7960526315789473
241,696.1780929866036,0.7894736842105263
242,698.9755713159971,0.375
243,698.9755713159971,0.5921052631578947
244,698.9755713159971,0.38815789473684215
245,698.9755713159971,0.45394736842105265
246,698.9755713159971,0.5986842105263157
247,698.9755713159971,0.638157894736842
248,698.9755713159971,0.3355263157894737
249,698.9755713159971,0.631578947368421
250,698.9755713159971,0.4605263157894737
251,698.9755713159971,0.6052631578947368
252,698.9755713159971,0.4013157894736842
253,698.9755713159971,0.4671052631578947
254,698.9755713159971,0.4736842105263158
255,698.9755713159971,0.625
256,698.9755713159971,0.42105263157894735
257,698.9755713159971,0.618421052631579
258,698.9755713159971,0.611842105263158
259,698.9755713159971,0.36184210526315785
260,698.9755713159971,0.506578947368421
261,698.9755713159971,0.513157894736842
262,698.9755713159971,0.5
263,698.9755713159971,0.493421052631579
264,698.9755713159971,0.5197368421052632
265,698.9755713159971,0.4342105263157895
266,698.9755713159971,0.5263157894736843
267,698.9755713159971,0.5328947368421053
268,698.9755713159971,0.5394736842105263
269,698.9755713159971,0.39473684210526316
270,698.9755713159971,0.5460526315789473
271,698.9755713159971,0.368421052631579
272,698.9755713159971,0.48026315789473684
273,698.9755713159971,0.35526315789473684
274,698.9755713159971,0.5592105263157895
275,698.9755713159971,0.3486842105263158
276,698.9755713159971,0.5657894736842105
277,698.9755713159971,0.6447368421052632
278,698.9755713159971,0.4407894736842105
279,698.9755713159971,0.7171052631578947
280,698.9755713159971,0.381578947368421
281,698.9755713159971,0.48684210526315785
282,698.9755713159971,0.5789473684210527
283,698.9755713159971,0.4276315789473685
284,698.9755713159971,0.3421052631578947
285,698.9755713159971,0.5526315789473684
286,698.9755713159971,0.5855263157894737
287,698.9755713159971,0.5723684210526316
288,698.9755713159971,0.6513157894736843
289,698.9755713159971,0.6644736842105263
290,698.9755713159971,0.7763157894736842
291,698.9755713159971,0.6710526315789473
292,698.9755713159971,0.6578947368421053
293,698.9755713159971,0.7697368421052632
294,698.9755713159971,0.7631578947368421
295,698.9755713159971,0.6776315789473684
296,698.9755713159971,0.756578947368421
297,698.9755713159971,0.6842105263157895
298,698.9755713159971,0.75
299,698.9755713159971,0.4473684210526315
300,698.9755713159971,0.743421052631579
301,698.9755713159971,0.6907894736842105
302,698.9755713159971,0.736842105263158
303,698.9755713159971,0.4144736842105263
304,698.9755713159971,0.6973684210526316
305,698.9755713159971,0.7105263157894737
306,698.9755713159971,0.7302631578947368
307,698.9755713159971,0.7236842105263157
308,698.9755713159971,0.7039473684210527
309,698.9755713159971,0.4078947368421053
310,701.7730496453901,0.2828947368421053
311,701.7730496453901,0.2763157894736842
312,701.7730496453901,0.22368421052631582
313,701.7730496453901,0.3026315789473685
314,701.7730496453901,0.26973684210526316
315,701.7730496453901,0.25
316,701.7730496453901,0.23684210526315785
317,701.7730496453901,0.26315789473684215
318,701.7730496453901,0.3223684210526315
319,701.7730496453901,0.2894736842105263
320,701.7730496453901,0.256578947368421
321,701.7730496453901,0.32894736842105265
322,701.7730496453901,0.23026315789473684
323,701.7730496453901,0.24342105263157898
324,701.7730496453901,0.29605263157894735
325,701.7730496453901,0.3092105263157895
326,701.7730496453901,0.3355263157894737
327,701.7730496453901,0.3157894736842105
328,704.5705279747831,0.2171052631578947
329,704.5705279747831,0.22368421052631582
330,704.5705279747831,0.1842105263157895
331,704.5705279747831,0.17763157894736847
332,704.5705279747831,0.1907894736842105
333,704.5705279747831,0.21052631578947367
334,704.5705279747831,0.17105263157894735
335,704.5705279747831,0.20394736842105265
336,704.5705279747831,0.19736842105263153
337,707.3680063041766,0.1578947368421053
338,707.3680063041766,0.13157894736842102
339,707.3680063041766,0.16447368421052633
340,707.3680063041766,0.14473684210526316
341,707.3680063041766,0.17105263157894735
342,707.3680063041766,0.15131578947368418
343,707.3680063041766,0.13815789473684215
344,710.1654846335696,0.125
345,710.1654846335696,0.13157894736842102
346,712.962962962963,0.125
347,712.962962962963,0.13157894736842102
348,715.7604412923561,0.13157894736842102
349,718.5579196217495,0.13157894736842102
350,721.3553979511425,0.13157894736842102
351,724.152876280536,0.13157894736842102
352,724.152876280536,0.125
353,726.950354609929,0.125
354,726.950354609929,0.13157894736842102
355,729.7478329393225,0.13157894736842102
356,732.5453112687155,0.13157894736842102
357,735.3427895981085,0.13157894736842102
358,738.140267927502,0.13157894736842102
359,740.937746256895,0.13157894736842102
360,740.937746256895,0.13815789473684215
361,743.7352245862885,0.14473684210526316
362,743.7352245862885,0.1578947368421053
363,743.7352245862885,0.13815789473684215
364,743.7352245862885,0.16447368421052633
365,743.7352245862885,0.15131578947368418
366,746.5327029156815,0.1842105263157895
367,746.5327029156815,0.16447368421052633
368,746.5327029156815,0.17763157894736847
369,746.5327029156815,0.17105263157894735
370,749.330181245075,0.1907894736842105
371,749.330181245075,0.2171052631578947
372,749.330181245075,0.19736842105263153
373,749.330181245075,0.23684210526315785
374,749.330181245075,0.1842105263157895
375,749.330181245075,0.20394736842105265
376,749.330181245075,0.24342105263157898
377,749.330181245075,0.256578947368421
378,749.330181245075,0.21052631578947367
379,749.330181245075,0.25
380,749.330181245075,0.22368421052631582
381,749.330181245075,0.23026315789473684
382,752.127659574468,0.3026315789473685
383,752.127659574468,0.29605263157894735
384,752.127659574468,0.2894736842105263
385,752.127659574468,0.256578947368421
386,752.127659574468,0.26973684210526316
387,752.127659574468,0.2828947368421053
388,752.127659574468,0.2763157894736842
389,752.127659574468,0.26315789473684215
390,754.9251379038615,0.3026315789473685
391,754.9251379038615,0.29605263157894735
392,754.9251379038615,0.3092105263157895
393,754.9251379038615,0.3157894736842105
394,757.7226162332545,0.2763157894736842
395,757.7226162332545,0.29605263157894735
396,757.7226162332545,0.26315789473684215
397,757.7226162332545,0.2894736842105263
398,757.7226162332545,0.256578947368421
399,757.7226162332545,0.2828947368421053
400,757.7226162332545,0.26973684210526316
401,760.520094562648,0.256578947368421
402,760.520094562648,0.22368421052631582
403,760.520094562648,0.23684210526315785
404,760.520094562648,0.23026315789473684
405,760.520094562648,0.2171052631578947
406,760.520094562648,0.25
407,760.520094562648,0.24342105263157898
408,763.317572892041,0.1907894736842105
409,763.317572892041,0.17105263157894735
410,763.317572892041,0.1842105263157895
411,763.317572892041,0.19736842105263153
412,763.317572892041,0.16447368421052633
413,763.317572892041,0.14473684210526316
414,763.317572892041,0.20394736842105265
415,763.317572892041,0.15131578947368418
416,763.317572892041,0.1578947368421053
417,763.317572892041,0.21052631578947367
418,763.317572892041,0.2171052631578947
419,763.317572892041,0.17763157894736847
420,766.115051221434,0.13815789473684215
421,766.115051221434,0.13157894736842102
422,766.115051221434,0.11842105263157898
423,766.115051221434,0.14473684210526316
424,766.115051221434,0.125
425,768.9125295508275,0.10526315789473684
426,768.9125295508275,0.11184210526315785
427,768.9125295508275,0.09210526315789469
428,768.9125295508275,0.09868421052631582
429,768.9125295508275,0.11842105263157898
430,768.9125295508275,0.08552631578947367
431,771.7100078802205,0.07894736842105265
432,771.7100078802205,0.08552631578947367
433,774.507486209614,0.07236842105263153
434,774.507486209614,0.06578947368421051
435,774.507486209614,0.07894736842105265
436,777.304964539007,0.05921052631578949
437,777.304964539007,0.06578947368421051
438,780.1024428684004,0.05921052631578949
439,780.1024428684004,0.052631578947368474
440,782.8999211977934,0.052631578947368474
441,785.6973995271869,0.052631578947368474
442,788.4948778565799,0.052631578947368474
443,788.4948778565799,0.046052631578947345
444,791.2923561859734,0.046052631578947345
445,794.0898345153664,0.046052631578947345
446,796.8873128447594,0.046052631578947345
447,799.6847911741529,0.046052631578947345
448,802.4822695035459,0.046052631578947345
449,805.2797478329394,0.03947368421052633
450,805.2797478329394,0.046052631578947345
451,808.0772261623324,0.03947368421052633
452,810.8747044917259,0.03947368421052633
453,813.6721828211189,0.03947368421052633
454,816.4696611505124,0.03947368421052633
455,819.2671394799054,0.03947368421052633
456,822.0646178092989,0.03947368421052633
457,824.8620961386919,0.03947368421052633
458,827.6595744680849,0.03947368421052633
459,830.4570527974784,0.03947368421052633
460,833.2545311268714,0.046052631578947345
461,833.2545311268714,0.03947368421052633
462,836.0520094562648,0.046052631578947345
463,838.8494877856579,0.046052631578947345
464,841.6469661150513,0.046052631578947345
465,841.6469661150513,0.03947368421052633
466,844.4444444444443,0.03947368421052633
467,847.2419227738378,0.03947368421052633
468,850.0394011032308,0.046052631578947345
469,850.0394011032308,0.03947368421052633
470,852.8368794326243,0.046052631578947345
471,855.6343577620173,0.046052631578947345
472,858.4318360914103,0.046052631578947345
473,861.2293144208038,0.046052631578947345
474,864.0267927501968,0.046052631578947345
475,866.8242710795903,0.046052631578947345
476,866.8242710795903,0.052631578947368474
477,869.6217494089833,0.052631578947368474
