,wavenumbers,absorbance
0,452.797478329393,0.05921052631578949
1,452.797478329393,0.052631578947368474
2,455.5949566587865,0.052631578947368474
3,458.3924349881795,0.052631578947368474
4,461.189913317573,0.052631578947368474
5,461.189913317573,0.05921052631578949
6,463.987391646966,0.05921052631578949
7,463.987391646966,0.052631578947368474
8,466.78486997635946,0.052631578947368474
9,469.5823483057525,0.052631578947368474
10,472.37982663514595,0.052631578947368474
11,475.17730496453896,0.052631578947368474
12,477.97478329393243,0.05921052631578949
13,477.97478329393243,0.052631578947368474
14,480.77226162332545,0.05921052631578949
15,480.77226162332545,0.052631578947368474
16,483.56973995271846,0.052631578947368474
17,486.36721828211193,0.052631578947368474
18,489.16469661150495,0.052631578947368474
19,491.9621749408984,0.052631578947368474
20,494.75965327029144,0.052631578947368474
21,497.5571315996849,0.052631578947368474
22,500.3546099290779,0.052631578947368474
23,503.1520882584714,0.052631578947368474
24,505.9495665878644,0.052631578947368474
25,508.7470449172579,0.052631578947368474
26,511.5445232466509,0.052631578947368474
27,514.3420015760439,0.052631578947368474
28,514.3420015760439,0.046052631578947345
29,517.1394799054374,0.046052631578947345
30,519.9369582348304,0.046052631578947345
31,522.7344365642239,0.046052631578947345
32,522.7344365642239,0.03947368421052633
33,525.5319148936169,0.03947368421052633
34,528.3293932230104,0.03947368421052633
35,531.1268715524034,0.03947368421052633
36,531.1268715524034,0.03289473684210531
37,533.9243498817968,0.03289473684210531
38,536.7218282111899,0.03289473684210531
39,539.5193065405833,0.02631578947368418
40,539.5193065405833,0.03289473684210531
41,542.3167848699763,0.02631578947368418
42,545.1142631993694,0.02631578947368418
43,547.9117415287628,0.02631578947368418
44,550.7092198581558,0.02631578947368418
45,550.7092198581558,0.03289473684210531
46,553.5066981875493,0.03289473684210531
47,556.3041765169423,0.03289473684210531
48,556.3041765169423,0.02631578947368418
49,559.1016548463358,0.02631578947368418
50,559.1016548463358,0.03289473684210531
51,561.8991331757288,0.03289473684210531
52,564.6966115051223,0.03289473684210531
53,567.4940898345153,0.03289473684210531
54,570.2915681639088,0.03289473684210531
55,573.0890464933018,0.03289473684210531
56,575.8865248226948,0.03289473684210531
57,578.6840031520883,0.03289473684210531
58,581.4814814814813,0.03289473684210531
59,584.2789598108748,0.03289473684210531
60,587.0764381402678,0.02631578947368418
61,587.0764381402678,0.03289473684210531
62,589.8739164696613,0.019736842105263164
63,589.8739164696613,0.02631578947368418
64,592.6713947990543,0.019736842105263164
65,595.4688731284477,0.019736842105263164
66,598.2663514578408,0.019736842105263164
67,601.0638297872342,0.019736842105263164
68,603.8613081166272,0.019736842105263164
69,606.6587864460207,0.019736842105263164
70,609.4562647754137,0.019736842105263164
71,612.2537431048067,0.02631578947368418
72,612.2537431048067,0.019736842105263164
73,615.0512214342002,0.02631578947368418
74,617.8486997635932,0.02631578947368418
75,620.6461780929867,0.02631578947368418
76,623.4436564223797,0.02631578947368418
77,626.2411347517732,0.02631578947368418
78,629.0386130811662,0.02631578947368418
79,631.8360914105597,0.02631578947368418
80,631.8360914105597,0.019736842105263164
81,634.6335697399527,0.019736842105263164
82,637.4310480693462,0.019736842105263164
83,640.2285263987392,0.019736842105263164
84,643.0260047281322,0.019736842105263164
85,645.8234830575257,0.019736842105263164
86,648.6209613869187,0.019736842105263164
87,651.4184397163122,0.019736842105263164
88,654.2159180457052,0.019736842105263164
89,657.0133963750986,0.019736842105263164
90,659.8108747044917,0.019736842105263164
91,662.6083530338851,0.019736842105263164
92,665.4058313632781,0.019736842105263164
93,668.2033096926716,0.019736842105263164
94,668.2033096926716,0.02631578947368418
95,671.0007880220646,0.02631578947368418
96,673.7982663514576,0.02631578947368418
97,676.5957446808511,0.02631578947368418
98,679.3932230102441,0.02631578947368418
99,682.1907013396376,0.03289473684210531
100,682.1907013396376,0.02631578947368418
101,684.9881796690306,0.03289473684210531
102,687.7856579984241,0.03289473684210531
103,690.5831363278171,0.03289473684210531
104,693.3806146572106,0.03289473684210531
105,696.1780929866036,0.03289473684210531
106,698.9755713159971,0.03947368421052633
107,698.9755713159971,0.03289473684210531
108,701.7730496453901,0.046052631578947345
109,701.7730496453901,0.03947368421052633
110,704.5705279747831,0.046052631578947345
111,707.3680063041766,0.052631578947368474
112,707.3680063041766,0.05921052631578949
113,707.3680063041766,0.046052631578947345
114,710.1654846335696,0.05921052631578949
115,712.962962962963,0.06578947368421051
116,712.962962962963,0.05921052631578949
117,715.7604412923561,0.06578947368421051
118,718.5579196217495,0.06578947368421051
119,718.5579196217495,0.07236842105263153
120,721.3553979511425,0.07236842105263153
121,721.3553979511425,0.07894736842105265
122,724.152876280536,0.07894736842105265
123,724.152876280536,0.08552631578947367
124,726.950354609929,0.08552631578947367
125,729.7478329393225,0.09210526315789469
126,729.7478329393225,0.08552631578947367
127,732.5453112687155,0.09210526315789469
128,732.5453112687155,0.09868421052631582
129,735.3427895981085,0.09868421052631582
130,738.140267927502,0.09868421052631582
131,738.140267927502,0.10526315789473684
132,740.937746256895,0.10526315789473684
133,740.937746256895,0.11184210526315785
134,743.7352245862885,0.11842105263157898
135,743.7352245862885,0.11184210526315785
136,746.5327029156815,0.11842105263157898
137,746.5327029156815,0.125
138,749.330181245075,0.125
139,749.330181245075,0.13157894736842102
140,749.330181245075,0.13815789473684215
141,752.127659574468,0.13815789473684215
142,752.127659574468,0.14473684210526316
143,754.9251379038615,0.1578947368421053
144,754.9251379038615,0.14473684210526316
145,754.9251379038615,0.15131578947368418
146,757.7226162332545,0.1578947368421053
147,757.7226162332545,0.16447368421052633
148,760.520094562648,0.17105263157894735
149,760.520094562648,0.16447368421052633
150,763.317572892041,0.17763157894736847
151,763.317572892041,0.17105263157894735
152,766.115051221434,0.17763157894736847
153,766.115051221434,0.1842105263157895
154,768.9125295508275,0.1907894736842105
155,768.9125295508275,0.1842105263157895
156,771.7100078802205,0.1907894736842105
157,774.507486209614,0.19736842105263153
158,774.507486209614,0.1907894736842105
159,777.304964539007,0.19736842105263153
160,780.1024428684004,0.19736842105263153
161,782.8999211977934,0.19736842105263153
162,785.6973995271869,0.19736842105263153
163,785.6973995271869,0.1907894736842105
164,788.4948778565799,0.1907894736842105
165,791.2923561859734,0.1907894736842105
166,794.0898345153664,0.1907894736842105
167,794.0898345153664,0.1842105263157895
168,796.8873128447594,0.1842105263157895
169,799.6847911741529,0.1907894736842105
170,799.6847911741529,0.1842105263157895
171,802.4822695035459,0.19736842105263153
172,802.4822695035459,0.1907894736842105
173,805.2797478329394,0.20394736842105265
174,805.2797478329394,0.22368421052631582
175,805.2797478329394,0.19736842105263153
176,805.2797478329394,0.21052631578947367
177,805.2797478329394,0.2171052631578947
178,808.0772261623324,0.23684210526315785
179,808.0772261623324,0.22368421052631582
180,808.0772261623324,0.23026315789473684
181,810.8747044917259,0.25
182,810.8747044917259,0.24342105263157898
183,810.8747044917259,0.23684210526315785
184,813.6721828211189,0.25
185,816.4696611505124,0.24342105263157898
186,816.4696611505124,0.25
187,819.2671394799054,0.23026315789473684
188,819.2671394799054,0.24342105263157898
189,819.2671394799054,0.23684210526315785
190,819.2671394799054,0.2171052631578947
191,819.2671394799054,0.22368421052631582
192,822.0646178092989,0.21052631578947367
193,822.0646178092989,0.2171052631578947
194,822.0646178092989,0.20394736842105265
195,824.8620961386919,0.1907894736842105
196,824.8620961386919,0.20394736842105265
197,824.8620961386919,0.19736842105263153
198,827.6595744680849,0.1842105263157895
199,827.6595744680849,0.1907894736842105
200,830.4570527974784,0.1842105263157895
201,830.4570527974784,0.17763157894736847
202,833.2545311268714,0.17763157894736847
203,836.0520094562648,0.17763157894736847
204,836.0520094562648,0.1842105263157895
205,838.8494877856579,0.17763157894736847
206,841.6469661150513,0.1842105263157895
207,841.6469661150513,0.17763157894736847
208,844.4444444444443,0.1907894736842105
209,844.4444444444443,0.1842105263157895
210,847.2419227738378,0.1907894736842105
211,850.0394011032308,0.1907894736842105
212,852.8368794326243,0.1907894736842105
213,855.6343577620173,0.1907894736842105
214,858.4318360914103,0.1907894736842105
215,861.2293144208038,0.1907894736842105
216,864.0267927501968,0.19736842105263153
217,864.0267927501968,0.1907894736842105
218,866.8242710795903,0.19736842105263153
219,869.6217494089833,0.19736842105263153
220,869.6217494089833,0.1907894736842105
221,872.4192277383768,0.1907894736842105
222,872.4192277383768,0.1842105263157895
223,875.2167060677698,0.1842105263157895
224,878.0141843971633,0.1842105263157895
225,878.0141843971633,0.17763157894736847
226,880.8116627265563,0.17763157894736847
227,883.6091410559497,0.17763157894736847
228,886.4066193853428,0.17763157894736847
229,889.2040977147362,0.17763157894736847
230,892.0015760441293,0.17763157894736847
231,892.0015760441293,0.1842105263157895
232,894.7990543735223,0.1842105263157895
233,897.5965327029157,0.1842105263157895
234,897.5965327029157,0.1907894736842105
235,900.3940110323088,0.1907894736842105
236,900.3940110323088,0.19736842105263153
237,903.1914893617022,0.19736842105263153
238,903.1914893617022,0.20394736842105265
239,905.9889676910952,0.20394736842105265
240,908.7864460204887,0.21052631578947367
241,908.7864460204887,0.20394736842105265
242,908.7864460204887,0.2171052631578947
243,911.5839243498817,0.2171052631578947
244,914.3814026792752,0.2171052631578947
245,917.1788810086682,0.2171052631578947
246,917.1788810086682,0.22368421052631582
247,919.9763593380617,0.22368421052631582
248,922.7738376674547,0.22368421052631582
249,925.5713159968477,0.22368421052631582
250,928.3687943262412,0.22368421052631582
251,931.1662726556342,0.22368421052631582
252,933.9637509850277,0.22368421052631582
253,936.7612293144207,0.22368421052631582
254,939.5587076438142,0.22368421052631582
255,939.5587076438142,0.2171052631578947
256,942.3561859732072,0.2171052631578947
257,945.1536643026006,0.21052631578947367
258,945.1536643026006,0.2171052631578947
259,947.9511426319937,0.21052631578947367
260,947.9511426319937,0.20394736842105265
261,950.7486209613871,0.20394736842105265
262,950.7486209613871,0.19736842105263153
263,953.5460992907801,0.1907894736842105
264,953.5460992907801,0.19736842105263153
265,953.5460992907801,0.1842105263157895
266,956.3435776201732,0.1842105263157895
267,959.1410559495666,0.17763157894736847
268,959.1410559495666,0.1842105263157895
269,961.9385342789597,0.17763157894736847
270,961.9385342789597,0.16447368421052633
271,961.9385342789597,0.17105263157894735
272,964.7360126083531,0.16447368421052633
273,967.5334909377461,0.1578947368421053
274,967.5334909377461,0.15131578947368418
275,967.5334909377461,0.16447368421052633
276,970.3309692671396,0.15131578947368418
277,970.3309692671396,0.14473684210526316
278,973.1284475965326,0.13815789473684215
279,973.1284475965326,0.13157894736842102
280,973.1284475965326,0.14473684210526316
281,975.9259259259261,0.13157894736842102
282,975.9259259259261,0.125
283,978.7234042553191,0.11842105263157898
284,978.7234042553191,0.125
285,981.5208825847126,0.11184210526315785
286,981.5208825847126,0.11842105263157898
287,984.3183609141056,0.11184210526315785
288,987.1158392434986,0.11184210526315785
289,987.1158392434986,0.10526315789473684
290,989.9133175728921,0.10526315789473684
291,992.7107959022851,0.10526315789473684
292,992.7107959022851,0.11184210526315785
293,995.5082742316786,0.11184210526315785
294,998.3057525610716,0.11842105263157898
295,998.3057525610716,0.11184210526315785
296,1001.103230890465,0.11842105263157898
297,1001.103230890465,0.125
298,1003.9007092198581,0.125
299,1003.9007092198581,0.13157894736842102
300,1006.6981875492515,0.13157894736842102
301,1009.4956658786446,0.13157894736842102
302,1009.4956658786446,0.11842105263157898
303,1009.4956658786446,0.125
304,1009.4956658786446,0.11184210526315785
305,1012.293144208038,0.11184210526315785
306,1012.293144208038,0.10526315789473684
307,1015.090622537431,0.10526315789473684
308,1017.8881008668241,0.09868421052631582
309,1017.8881008668241,0.10526315789473684
310,1020.6855791962175,0.10526315789473684
311,1023.4830575256105,0.10526315789473684
312,1023.4830575256105,0.11184210526315785
313,1026.280535855004,0.11184210526315785
314,1029.078014184397,0.11184210526315785
315,1029.078014184397,0.11842105263157898
316,1031.8754925137905,0.11842105263157898
317,1034.6729708431835,0.11842105263157898
318,1034.6729708431835,0.125
319,1037.470449172577,0.125
320,1040.26792750197,0.125
321,1040.26792750197,0.13157894736842102
322,1043.0654058313635,0.13815789473684215
323,1043.0654058313635,0.13157894736842102
324,1045.8628841607565,0.13815789473684215
325,1048.6603624901495,0.13815789473684215
326,1048.6603624901495,0.14473684210526316
327,1051.457840819543,0.14473684210526316
328,1051.457840819543,0.13815789473684215
329,1054.255319148936,0.13815789473684215
330,1054.255319148936,0.13157894736842102
331,1057.0527974783295,0.13157894736842102
332,1059.8502758077225,0.13157894736842102
333,1059.8502758077225,0.125
334,1062.647754137116,0.125
335,1062.647754137116,0.11842105263157898
336,1065.445232466509,0.11842105263157898
337,1068.2427107959024,0.11184210526315785
338,1068.2427107959024,0.11842105263157898
339,1071.0401891252955,0.11184210526315785
340,1073.837667454689,0.11184210526315785
341,1076.635145784082,0.11184210526315785
342,1079.432624113475,0.11184210526315785
343,1082.2301024428684,0.11184210526315785
344,1085.0275807722614,0.11184210526315785
345,1085.0275807722614,0.11842105263157898
346,1087.825059101655,0.11842105263157898
347,1090.622537431048,0.11842105263157898
348,1090.622537431048,0.125
349,1090.622537431048,0.13157894736842102
350,1090.622537431048,0.13815789473684215
351,1090.622537431048,0.14473684210526316
352,1093.4200157604414,0.14473684210526316
353,1093.4200157604414,0.15131578947368418
354,1096.2174940898344,0.16447368421052633
355,1096.2174940898344,0.17763157894736847
356,1096.2174940898344,0.1578947368421053
357,1096.2174940898344,0.1907894736842105
358,1096.2174940898344,0.17105263157894735
359,1096.2174940898344,0.15131578947368418
360,1096.2174940898344,0.1842105263157895
361,1099.014972419228,0.19736842105263153
362,1099.014972419228,0.20394736842105265
363,1099.014972419228,0.21052631578947367
364,1099.014972419228,0.1907894736842105
365,1101.812450748621,0.23026315789473684
366,1101.812450748621,0.21052631578947367
367,1101.812450748621,0.2171052631578947
368,1101.812450748621,0.22368421052631582
369,1104.6099290780144,0.26315789473684215
370,1104.6099290780144,0.26973684210526316
371,1104.6099290780144,0.23026315789473684
372,1104.6099290780144,0.23684210526315785
373,1104.6099290780144,0.24342105263157898
374,1104.6099290780144,0.25
375,1104.6099290780144,0.256578947368421
376,1107.4074074074074,0.2828947368421053
377,1107.4074074074074,0.2763157894736842
378,1107.4074074074074,0.2894736842105263
379,1107.4074074074074,0.26973684210526316
380,1110.2048857368004,0.3157894736842105
381,1110.2048857368004,0.3092105263157895
382,1110.2048857368004,0.3026315789473685
383,1110.2048857368004,0.29605263157894735
384,1110.2048857368004,0.2894736842105263
385,1113.0023640661939,0.3157894736842105
386,1113.0023640661939,0.3223684210526315
387,1115.799842395587,0.3223684210526315
388,1115.799842395587,0.32894736842105265
389,1115.799842395587,0.3355263157894737
390,1118.5973207249804,0.3355263157894737
391,1121.3947990543734,0.3355263157894737
392,1124.1922773837669,0.32894736842105265
393,1124.1922773837669,0.3355263157894737
394,1126.9897557131599,0.32894736842105265
395,1126.9897557131599,0.3223684210526315
396,1129.7872340425533,0.3157894736842105
397,1129.7872340425533,0.3092105263157895
398,1129.7872340425533,0.3223684210526315
399,1132.5847123719464,0.29605263157894735
400,1132.5847123719464,0.3092105263157895
401,1132.5847123719464,0.3026315789473685
402,1135.3821907013398,0.2763157894736842
403,1135.3821907013398,0.2894736842105263
404,1135.3821907013398,0.26973684210526316
405,1135.3821907013398,0.29605263157894735
406,1135.3821907013398,0.2828947368421053
407,1138.1796690307328,0.26973684210526316
408,1138.1796690307328,0.26315789473684215
409,1138.1796690307328,0.256578947368421
410,1140.9771473601263,0.23026315789473684
411,1140.9771473601263,0.25
412,1140.9771473601263,0.22368421052631582
413,1140.9771473601263,0.24342105263157898
414,1140.9771473601263,0.23684210526315785
415,1140.9771473601263,0.256578947368421
416,1143.7746256895193,0.22368421052631582
417,1143.7746256895193,0.21052631578947367
418,1143.7746256895193,0.2171052631578947
419,1146.5721040189123,0.21052631578947367
420,1146.5721040189123,0.19736842105263153
421,1146.5721040189123,0.20394736842105265
422,1146.5721040189123,0.1907894736842105
423,1149.3695823483058,0.17763157894736847
424,1149.3695823483058,0.1842105263157895
425,1149.3695823483058,0.1907894736842105
426,1152.1670606776988,0.17763157894736847
427,1152.1670606776988,0.1578947368421053
428,1152.1670606776988,0.17105263157894735
429,1152.1670606776988,0.16447368421052633
430,1154.9645390070923,0.15131578947368418
431,1154.9645390070923,0.1578947368421053
432,1157.7620173364853,0.15131578947368418
433,1157.7620173364853,0.13815789473684215
434,1157.7620173364853,0.14473684210526316
435,1157.7620173364853,0.13157894736842102
436,1160.5594956658788,0.125
437,1160.5594956658788,0.10526315789473684
438,1160.5594956658788,0.11842105263157898
439,1160.5594956658788,0.13157894736842102
440,1160.5594956658788,0.11184210526315785
441,1163.3569739952718,0.09210526315789469
442,1163.3569739952718,0.08552631578947367
443,1163.3569739952718,0.09868421052631582
444,1163.3569739952718,0.10526315789473684
445,1166.1544523246653,0.07894736842105265
446,1166.1544523246653,0.07236842105263153
447,1166.1544523246653,0.08552631578947367
448,1166.1544523246653,0.06578947368421051
449,1168.9519306540583,0.06578947368421051
450,1168.9519306540583,0.05921052631578949
451,1171.7494089834518,0.052631578947368474
452,1171.7494089834518,0.05921052631578949
453,1174.5468873128448,0.052631578947368474
454,1177.3443656422378,0.052631578947368474
455,1180.1418439716313,0.052631578947368474
456,1182.9393223010243,0.052631578947368474
457,1182.9393223010243,0.046052631578947345
458,1185.7368006304177,0.046052631578947345
459,1185.7368006304177,0.03947368421052633
460,1188.5342789598108,0.03289473684210531
461,1188.5342789598108,0.03947368421052633
462,1191.3317572892042,0.03289473684210531
463,1191.3317572892042,0.02631578947368418
464,1194.1292356185972,0.02631578947368418
465,1196.9267139479907,0.019736842105263164
466,1196.9267139479907,0.02631578947368418
467,1199.7241922773837,0.019736842105263164
468,1202.5216706067772,0.013157894736842146
469,1202.5216706067772,0.019736842105263164
470,1205.3191489361702,0.013157894736842146
