,wavenumbers,absorbance
0,452.797478329393,0.03289473684210531
1,455.5949566587865,0.03289473684210531
2,458.3924349881795,0.03947368421052633
3,458.3924349881795,0.03289473684210531
4,461.189913317573,0.03947368421052633
5,461.189913317573,0.046052631578947345
6,463.987391646966,0.046052631578947345
7,466.78486997635946,0.046052631578947345
8,469.5823483057525,0.046052631578947345
9,472.37982663514595,0.046052631578947345
10,475.17730496453896,0.046052631578947345
11,477.97478329393243,0.046052631578947345
12,480.77226162332545,0.046052631578947345
13,483.56973995271846,0.03947368421052633
14,483.56973995271846,0.046052631578947345
15,486.36721828211193,0.03947368421052633
16,489.16469661150495,0.03947368421052633
17,491.9621749408984,0.03947368421052633
18,494.75965327029144,0.03289473684210531
19,494.75965327029144,0.03947368421052633
20,497.5571315996849,0.03289473684210531
21,500.3546099290779,0.03289473684210531
22,503.1520882584714,0.03289473684210531
23,505.9495665878644,0.03289473684210531
24,508.7470449172579,0.03289473684210531
25,508.7470449172579,0.02631578947368418
26,511.5445232466509,0.02631578947368418
27,514.3420015760439,0.02631578947368418
28,517.1394799054374,0.02631578947368418
29,519.9369582348304,0.02631578947368418
30,522.7344365642239,0.02631578947368418
31,525.5319148936169,0.02631578947368418
32,528.3293932230104,0.019736842105263164
33,528.3293932230104,0.02631578947368418
34,531.1268715524034,0.019736842105263164
35,533.9243498817968,0.02631578947368418
36,533.9243498817968,0.019736842105263164
37,536.7218282111899,0.02631578947368418
38,539.5193065405833,0.02631578947368418
39,542.3167848699763,0.02631578947368418
40,545.1142631993694,0.02631578947368418
41,545.1142631993694,0.019736842105263164
42,547.9117415287628,0.019736842105263164
43,550.7092198581558,0.019736842105263164
44,553.5066981875493,0.019736842105263164
45,556.3041765169423,0.019736842105263164
46,559.1016548463358,0.019736842105263164
47,561.8991331757288,0.019736842105263164
48,564.6966115051223,0.019736842105263164
49,567.4940898345153,0.019736842105263164
50,570.2915681639088,0.019736842105263164
51,573.0890464933018,0.019736842105263164
52,575.8865248226948,0.02631578947368418
53,575.8865248226948,0.019736842105263164
54,578.6840031520883,0.02631578947368418
55,581.4814814814813,0.02631578947368418
56,584.2789598108748,0.03289473684210531
57,584.2789598108748,0.02631578947368418
58,587.0764381402678,0.03289473684210531
59,587.0764381402678,0.03947368421052633
60,589.8739164696613,0.05921052631578949
61,589.8739164696613,0.03947368421052633
62,589.8739164696613,0.046052631578947345
63,589.8739164696613,0.052631578947368474
64,592.6713947990543,0.06578947368421051
65,592.6713947990543,0.05921052631578949
66,595.4688731284477,0.08552631578947367
67,595.4688731284477,0.06578947368421051
68,595.4688731284477,0.07894736842105265
69,595.4688731284477,0.07236842105263153
70,595.4688731284477,0.09210526315789469
71,598.2663514578408,0.09210526315789469
72,598.2663514578408,0.09868421052631582
73,598.2663514578408,0.10526315789473684
74,601.0638297872342,0.11842105263157898
75,601.0638297872342,0.10526315789473684
76,601.0638297872342,0.11184210526315785
77,603.8613081166272,0.10526315789473684
78,603.8613081166272,0.11842105263157898
79,603.8613081166272,0.09868421052631582
80,603.8613081166272,0.11184210526315785
81,606.6587864460207,0.07894736842105265
82,606.6587864460207,0.09868421052631582
83,606.6587864460207,0.08552631578947367
84,606.6587864460207,0.07236842105263153
85,606.6587864460207,0.09210526315789469
86,609.4562647754137,0.05921052631578949
87,609.4562647754137,0.07236842105263153
88,609.4562647754137,0.06578947368421051
89,612.2537431048067,0.052631578947368474
90,612.2537431048067,0.05921052631578949
91,615.0512214342002,0.052631578947368474
92,615.0512214342002,0.046052631578947345
93,617.8486997635932,0.052631578947368474
94,617.8486997635932,0.046052631578947345
95,620.6461780929867,0.052631578947368474
96,623.4436564223797,0.052631578947368474
97,626.2411347517732,0.052631578947368474
98,626.2411347517732,0.05921052631578949
99,629.0386130811662,0.05921052631578949
100,631.8360914105597,0.05921052631578949
101,631.8360914105597,0.052631578947368474
102,634.6335697399527,0.046052631578947345
103,634.6335697399527,0.052631578947368474
104,637.4310480693462,0.046052631578947345
105,640.2285263987392,0.046052631578947345
106,643.0260047281322,0.03947368421052633
107,643.0260047281322,0.046052631578947345
108,645.8234830575257,0.03947368421052633
109,648.6209613869187,0.03947368421052633
110,651.4184397163122,0.03289473684210531
111,651.4184397163122,0.02631578947368418
112,651.4184397163122,0.03947368421052633
113,654.2159180457052,0.02631578947368418
114,657.0133963750986,0.019736842105263164
115,657.0133963750986,0.02631578947368418
116,659.8108747044917,0.019736842105263164
117,662.6083530338851,0.019736842105263164
118,665.4058313632781,0.019736842105263164
119,668.2033096926716,0.019736842105263164
120,671.0007880220646,0.02631578947368418
121,671.0007880220646,0.019736842105263164
122,673.7982663514576,0.02631578947368418
123,673.7982663514576,0.019736842105263164
124,676.5957446808511,0.019736842105263164
125,679.3932230102441,0.019736842105263164
126,682.1907013396376,0.019736842105263164
127,682.1907013396376,0.02631578947368418
128,684.9881796690306,0.02631578947368418
129,687.7856579984241,0.019736842105263164
130,687.7856579984241,0.02631578947368418
131,690.5831363278171,0.019736842105263164
132,693.3806146572106,0.019736842105263164
133,696.1780929866036,0.019736842105263164
134,698.9755713159971,0.019736842105263164
135,698.9755713159971,0.02631578947368418
136,701.7730496453901,0.03947368421052633
137,701.7730496453901,0.03289473684210531
138,701.7730496453901,0.02631578947368418
139,704.5705279747831,0.05921052631578949
140,704.5705279747831,0.052631578947368474
141,704.5705279747831,0.046052631578947345
142,704.5705279747831,0.03947368421052633
143,707.3680063041766,0.07894736842105265
144,707.3680063041766,0.09868421052631582
145,707.3680063041766,0.07236842105263153
146,707.3680063041766,0.08552631578947367
147,707.3680063041766,0.06578947368421051
148,707.3680063041766,0.09210526315789469
149,707.3680063041766,0.05921052631578949
150,707.3680063041766,0.10526315789473684
151,710.1654846335696,0.10526315789473684
152,712.962962962963,0.09868421052631582
153,712.962962962963,0.07894736842105265
154,712.962962962963,0.09210526315789469
155,712.962962962963,0.08552631578947367
156,712.962962962963,0.10526315789473684
157,715.7604412923561,0.07894736842105265
158,715.7604412923561,0.07236842105263153
159,715.7604412923561,0.06578947368421051
160,718.5579196217495,0.05921052631578949
161,718.5579196217495,0.06578947368421051
162,721.3553979511425,0.05921052631578949
163,721.3553979511425,0.06578947368421051
164,724.152876280536,0.06578947368421051
165,724.152876280536,0.07236842105263153
166,726.950354609929,0.05921052631578949
167,726.950354609929,0.06578947368421051
168,729.7478329393225,0.05921052631578949
169,729.7478329393225,0.046052631578947345
170,729.7478329393225,0.052631578947368474
171,732.5453112687155,0.03947368421052633
172,732.5453112687155,0.046052631578947345
173,735.3427895981085,0.03947368421052633
174,738.140267927502,0.03289473684210531
175,738.140267927502,0.03947368421052633
176,740.937746256895,0.03289473684210531
177,743.7352245862885,0.03289473684210531
178,746.5327029156815,0.03289473684210531
179,749.330181245075,0.03947368421052633
180,749.330181245075,0.03289473684210531
181,752.127659574468,0.046052631578947345
182,752.127659574468,0.03947368421052633
183,754.9251379038615,0.05921052631578949
184,754.9251379038615,0.046052631578947345
185,754.9251379038615,0.052631578947368474
186,757.7226162332545,0.06578947368421051
187,757.7226162332545,0.05921052631578949
188,760.520094562648,0.07236842105263153
189,760.520094562648,0.06578947368421051
190,763.317572892041,0.07236842105263153
191,763.317572892041,0.07894736842105265
192,763.317572892041,0.08552631578947367
193,766.115051221434,0.07894736842105265
194,766.115051221434,0.08552631578947367
195,768.9125295508275,0.07894736842105265
196,768.9125295508275,0.07236842105263153
197,771.7100078802205,0.07236842105263153
198,774.507486209614,0.07236842105263153
199,774.507486209614,0.06578947368421051
200,777.304964539007,0.06578947368421051
201,780.1024428684004,0.05921052631578949
202,780.1024428684004,0.06578947368421051
203,782.8999211977934,0.052631578947368474
204,782.8999211977934,0.05921052631578949
205,785.6973995271869,0.052631578947368474
206,788.4948778565799,0.052631578947368474
207,788.4948778565799,0.046052631578947345
208,791.2923561859734,0.046052631578947345
209,794.0898345153664,0.046052631578947345
210,796.8873128447594,0.046052631578947345
211,799.6847911741529,0.046052631578947345
212,799.6847911741529,0.052631578947368474
213,802.4822695035459,0.046052631578947345
214,805.2797478329394,0.052631578947368474
215,805.2797478329394,0.046052631578947345
216,810.8747044917259,0.046052631578947345
217,813.6721828211189,0.052631578947368474
218,813.6721828211189,0.046052631578947345
219,816.4696611505124,0.052631578947368474
220,819.2671394799054,0.052631578947368474
221,822.0646178092989,0.052631578947368474
222,822.0646178092989,0.05921052631578949
223,824.8620961386919,0.05921052631578949
224,827.6595744680849,0.05921052631578949
225,830.4570527974784,0.05921052631578949
226,830.4570527974784,0.052631578947368474
227,833.2545311268714,0.052631578947368474
228,836.0520094562648,0.052631578947368474
229,838.8494877856579,0.052631578947368474
230,841.6469661150513,0.052631578947368474
231,844.4444444444443,0.052631578947368474
232,847.2419227738378,0.052631578947368474
233,850.0394011032308,0.052631578947368474
234,852.8368794326243,0.052631578947368474
235,855.6343577620173,0.052631578947368474
236,858.4318360914103,0.052631578947368474
237,861.2293144208038,0.052631578947368474
238,864.0267927501968,0.052631578947368474
239,866.8242710795903,0.052631578947368474
240,869.6217494089833,0.052631578947368474
241,872.4192277383768,0.052631578947368474
242,875.2167060677698,0.052631578947368474
243,878.0141843971633,0.052631578947368474
244,880.8116627265563,0.05921052631578949
245,880.8116627265563,0.052631578947368474
246,883.6091410559497,0.05921052631578949
247,883.6091410559497,0.06578947368421051
248,886.4066193853428,0.07894736842105265
249,886.4066193853428,0.06578947368421051
250,886.4066193853428,0.07236842105263153
251,889.2040977147362,0.07894736842105265
252,892.0015760441293,0.07894736842105265
253,892.0015760441293,0.08552631578947367
254,894.7990543735223,0.09210526315789469
255,894.7990543735223,0.08552631578947367
256,897.5965327029157,0.09868421052631582
257,897.5965327029157,0.09210526315789469
258,900.3940110323088,0.09868421052631582
259,900.3940110323088,0.10526315789473684
260,903.1914893617022,0.11184210526315785
261,903.1914893617022,0.10526315789473684
262,905.9889676910952,0.11184210526315785
263,908.7864460204887,0.11184210526315785
264,911.5839243498817,0.11184210526315785
265,911.5839243498817,0.11842105263157898
266,914.3814026792752,0.11842105263157898
267,914.3814026792752,0.125
268,917.1788810086682,0.13157894736842102
269,917.1788810086682,0.125
270,919.9763593380617,0.13815789473684215
271,919.9763593380617,0.13157894736842102
272,922.7738376674547,0.15131578947368418
273,922.7738376674547,0.14473684210526316
274,922.7738376674547,0.13815789473684215
275,925.5713159968477,0.1578947368421053
276,925.5713159968477,0.15131578947368418
277,925.5713159968477,0.16447368421052633
278,928.3687943262412,0.16447368421052633
279,928.3687943262412,0.17105263157894735
280,931.1662726556342,0.1907894736842105
281,931.1662726556342,0.17105263157894735
282,931.1662726556342,0.1842105263157895
283,931.1662726556342,0.17763157894736847
284,933.9637509850277,0.19736842105263153
285,933.9637509850277,0.20394736842105265
286,933.9637509850277,0.1907894736842105
287,936.7612293144207,0.20394736842105265
288,936.7612293144207,0.21052631578947367
289,939.5587076438142,0.21052631578947367
290,939.5587076438142,0.2171052631578947
291,942.3561859732072,0.2171052631578947
292,945.1536643026006,0.2171052631578947
293,947.9511426319937,0.21052631578947367
294,947.9511426319937,0.2171052631578947
295,950.7486209613871,0.21052631578947367
296,953.5460992907801,0.21052631578947367
297,953.5460992907801,0.20394736842105265
298,956.3435776201732,0.19736842105263153
299,956.3435776201732,0.20394736842105265
300,959.1410559495666,0.19736842105263153
301,959.1410559495666,0.1907894736842105
302,961.9385342789597,0.1907894736842105
303,961.9385342789597,0.1842105263157895
304,964.7360126083531,0.1842105263157895
305,964.7360126083531,0.17763157894736847
306,967.5334909377461,0.17763157894736847
307,970.3309692671396,0.17763157894736847
308,973.1284475965326,0.17763157894736847
309,975.9259259259261,0.1842105263157895
310,975.9259259259261,0.17763157894736847
311,978.7234042553191,0.1842105263157895
312,981.5208825847126,0.1842105263157895
313,984.3183609141056,0.1842105263157895
314,987.1158392434986,0.1842105263157895
315,987.1158392434986,0.1907894736842105
316,989.9133175728921,0.1907894736842105
317,989.9133175728921,0.19736842105263153
318,992.7107959022851,0.21052631578947367
319,992.7107959022851,0.19736842105263153
320,992.7107959022851,0.20394736842105265
321,995.5082742316786,0.21052631578947367
322,995.5082742316786,0.2171052631578947
323,995.5082742316786,0.22368421052631582
324,998.3057525610716,0.23026315789473684
325,998.3057525610716,0.23684210526315785
326,998.3057525610716,0.22368421052631582
327,998.3057525610716,0.24342105263157898
328,1001.103230890465,0.24342105263157898
329,1001.103230890465,0.256578947368421
330,1001.103230890465,0.25
331,1003.9007092198581,0.26973684210526316
332,1003.9007092198581,0.26315789473684215
333,1003.9007092198581,0.2828947368421053
334,1003.9007092198581,0.2763157894736842
335,1003.9007092198581,0.2894736842105263
336,1003.9007092198581,0.256578947368421
337,1006.6981875492515,0.3026315789473685
338,1006.6981875492515,0.3092105263157895
339,1006.6981875492515,0.2894736842105263
340,1006.6981875492515,0.29605263157894735
341,1009.4956658786446,0.36184210526315785
342,1009.4956658786446,0.3486842105263158
343,1009.4956658786446,0.3092105263157895
344,1009.4956658786446,0.32894736842105265
345,1009.4956658786446,0.3355263157894737
346,1009.4956658786446,0.35526315789473684
347,1009.4956658786446,0.3223684210526315
348,1009.4956658786446,0.3157894736842105
349,1009.4956658786446,0.3421052631578947
350,1012.293144208038,0.36184210526315785
351,1012.293144208038,0.368421052631579
352,1012.293144208038,0.381578947368421
353,1012.293144208038,0.375
354,1015.090622537431,0.381578947368421
355,1015.090622537431,0.4078947368421053
356,1015.090622537431,0.39473684210526316
357,1015.090622537431,0.38815789473684215
358,1015.090622537431,0.4013157894736842
359,1017.8881008668241,0.4276315789473685
360,1017.8881008668241,0.4078947368421053
361,1017.8881008668241,0.4144736842105263
362,1017.8881008668241,0.42105263157894735
363,1020.6855791962175,0.4276315789473685
364,1023.4830575256105,0.42105263157894735
365,1023.4830575256105,0.4144736842105263
366,1023.4830575256105,0.4276315789473685
367,1026.280535855004,0.4078947368421053
368,1026.280535855004,0.4144736842105263
369,1026.280535855004,0.4013157894736842
370,1029.078014184397,0.38815789473684215
371,1029.078014184397,0.381578947368421
372,1029.078014184397,0.39473684210526316
373,1029.078014184397,0.4013157894736842
374,1031.8754925137905,0.381578947368421
375,1031.8754925137905,0.375
376,1034.6729708431835,0.368421052631579
377,1034.6729708431835,0.375
378,1037.470449172577,0.36184210526315785
379,1037.470449172577,0.368421052631579
380,1040.26792750197,0.36184210526315785
381,1043.0654058313635,0.36184210526315785
382,1043.0654058313635,0.35526315789473684
383,1045.8628841607565,0.3486842105263158
384,1045.8628841607565,0.35526315789473684
385,1048.6603624901495,0.3486842105263158
386,1048.6603624901495,0.3355263157894737
387,1048.6603624901495,0.3421052631578947
388,1048.6603624901495,0.32894736842105265
389,1051.457840819543,0.32894736842105265
390,1051.457840819543,0.3223684210526315
391,1054.255319148936,0.3157894736842105
392,1054.255319148936,0.3223684210526315
393,1057.0527974783295,0.3157894736842105
394,1059.8502758077225,0.3157894736842105
395,1062.647754137116,0.3157894736842105
396,1065.445232466509,0.3157894736842105
397,1065.445232466509,0.3223684210526315
398,1068.2427107959024,0.3223684210526315
399,1068.2427107959024,0.3157894736842105
400,1071.0401891252955,0.3092105263157895
401,1071.0401891252955,0.3157894736842105
402,1073.837667454689,0.3092105263157895
403,1076.635145784082,0.3026315789473685
404,1076.635145784082,0.3092105263157895
405,1079.432624113475,0.3026315789473685
406,1079.432624113475,0.3092105263157895
407,1082.2301024428684,0.3092105263157895
408,1085.0275807722614,0.3157894736842105
409,1085.0275807722614,0.3092105263157895
410,1087.825059101655,0.3157894736842105
411,1090.622537431048,0.3157894736842105
412,1090.622537431048,0.3223684210526315
413,1093.4200157604414,0.32894736842105265
414,1093.4200157604414,0.3223684210526315
415,1096.2174940898344,0.32894736842105265
416,1099.014972419228,0.3355263157894737
417,1099.014972419228,0.32894736842105265
418,1101.812450748621,0.3355263157894737
419,1101.812450748621,0.3421052631578947
420,1104.6099290780144,0.3421052631578947
421,1104.6099290780144,0.3486842105263158
422,1104.6099290780144,0.35526315789473684
423,1107.4074074074074,0.36184210526315785
424,1107.4074074074074,0.35526315789473684
425,1110.2048857368004,0.375
426,1110.2048857368004,0.368421052631579
427,1110.2048857368004,0.36184210526315785
428,1113.0023640661939,0.375
429,1115.799842395587,0.375
430,1118.5973207249804,0.368421052631579
431,1118.5973207249804,0.375
432,1121.3947990543734,0.36184210526315785
433,1121.3947990543734,0.368421052631579
434,1124.1922773837669,0.35526315789473684
435,1124.1922773837669,0.36184210526315785
436,1126.9897557131599,0.35526315789473684
437,1126.9897557131599,0.3486842105263158
438,1129.7872340425533,0.3486842105263158
439,1129.7872340425533,0.3421052631578947
440,1132.5847123719464,0.3421052631578947
441,1135.3821907013398,0.3486842105263158
442,1135.3821907013398,0.3421052631578947
443,1138.1796690307328,0.3486842105263158
444,1138.1796690307328,0.35526315789473684
445,1140.9771473601263,0.36184210526315785
446,1140.9771473601263,0.375
447,1140.9771473601263,0.35526315789473684
448,1140.9771473601263,0.368421052631579
449,1140.9771473601263,0.381578947368421
450,1143.7746256895193,0.381578947368421
451,1143.7746256895193,0.38815789473684215
452,1143.7746256895193,0.39473684210526316
453,1146.5721040189123,0.39473684210526316
454,1146.5721040189123,0.42105263157894735
455,1146.5721040189123,0.4342105263157895
456,1146.5721040189123,0.4407894736842105
457,1146.5721040189123,0.4276315789473685
458,1146.5721040189123,0.4144736842105263
459,1146.5721040189123,0.4078947368421053
460,1146.5721040189123,0.4013157894736842
461,1149.3695823483058,0.45394736842105265
462,1149.3695823483058,0.4605263157894737
463,1149.3695823483058,0.4473684210526315
464,1149.3695823483058,0.4671052631578947
465,1149.3695823483058,0.4407894736842105
466,1152.1670606776988,0.493421052631579
467,1152.1670606776988,0.4671052631578947
468,1152.1670606776988,0.4736842105263158
