,wavenumbers,absorbance
0,452.797478329393,0.046052631578947345
1,455.5949566587865,0.046052631578947345
2,458.3924349881795,0.046052631578947345
3,461.189913317573,0.046052631578947345
4,463.987391646966,0.046052631578947345
5,466.78486997635946,0.046052631578947345
6,469.5823483057525,0.046052631578947345
7,472.37982663514595,0.046052631578947345
8,475.17730496453896,0.046052631578947345
9,477.97478329393243,0.046052631578947345
10,480.77226162332545,0.046052631578947345
11,483.56973995271846,0.046052631578947345
12,486.36721828211193,0.046052631578947345
13,489.16469661150495,0.046052631578947345
14,491.9621749408984,0.046052631578947345
15,494.75965327029144,0.046052631578947345
16,497.5571315996849,0.046052631578947345
17,500.3546099290779,0.046052631578947345
18,503.1520882584714,0.046052631578947345
19,503.1520882584714,0.03947368421052633
20,505.9495665878644,0.03947368421052633
21,508.7470449172579,0.03947368421052633
22,511.5445232466509,0.03947368421052633
23,514.3420015760439,0.03289473684210531
24,514.3420015760439,0.03947368421052633
25,517.1394799054374,0.03289473684210531
26,519.9369582348304,0.03289473684210531
27,522.7344365642239,0.03289473684210531
28,525.5319148936169,0.02631578947368418
29,525.5319148936169,0.03289473684210531
30,528.3293932230104,0.02631578947368418
31,531.1268715524034,0.02631578947368418
32,533.9243498817968,0.02631578947368418
33,536.7218282111899,0.02631578947368418
34,539.5193065405833,0.02631578947368418
35,539.5193065405833,0.019736842105263164
36,542.3167848699763,0.02631578947368418
37,542.3167848699763,0.019736842105263164
38,545.1142631993694,0.02631578947368418
39,547.9117415287628,0.02631578947368418
40,550.7092198581558,0.02631578947368418
41,553.5066981875493,0.02631578947368418
42,556.3041765169423,0.02631578947368418
43,559.1016548463358,0.02631578947368418
44,561.8991331757288,0.02631578947368418
45,564.6966115051223,0.02631578947368418
46,567.4940898345153,0.02631578947368418
47,570.2915681639088,0.02631578947368418
48,573.0890464933018,0.02631578947368418
49,575.8865248226948,0.02631578947368418
50,575.8865248226948,0.03289473684210531
51,578.6840031520883,0.03289473684210531
52,581.4814814814813,0.03289473684210531
53,584.2789598108748,0.03289473684210531
54,587.0764381402678,0.03947368421052633
55,587.0764381402678,0.03289473684210531
56,589.8739164696613,0.046052631578947345
57,589.8739164696613,0.03947368421052633
58,592.6713947990543,0.046052631578947345
59,592.6713947990543,0.052631578947368474
60,595.4688731284477,0.05921052631578949
61,595.4688731284477,0.06578947368421051
62,595.4688731284477,0.052631578947368474
63,598.2663514578408,0.07236842105263153
64,598.2663514578408,0.06578947368421051
65,598.2663514578408,0.07894736842105265
66,601.0638297872342,0.07894736842105265
67,601.0638297872342,0.08552631578947367
68,603.8613081166272,0.07894736842105265
69,603.8613081166272,0.08552631578947367
70,606.6587864460207,0.07894736842105265
71,606.6587864460207,0.06578947368421051
72,606.6587864460207,0.05921052631578949
73,606.6587864460207,0.07236842105263153
74,609.4562647754137,0.05921052631578949
75,612.2537431048067,0.05921052631578949
76,612.2537431048067,0.052631578947368474
77,615.0512214342002,0.052631578947368474
78,617.8486997635932,0.052631578947368474
79,617.8486997635932,0.046052631578947345
80,620.6461780929867,0.046052631578947345
81,620.6461780929867,0.052631578947368474
82,623.4436564223797,0.052631578947368474
83,626.2411347517732,0.046052631578947345
84,626.2411347517732,0.052631578947368474
85,629.0386130811662,0.046052631578947345
86,631.8360914105597,0.046052631578947345
87,631.8360914105597,0.03947368421052633
88,634.6335697399527,0.03947368421052633
89,637.4310480693462,0.03947368421052633
90,640.2285263987392,0.03947368421052633
91,643.0260047281322,0.03947368421052633
92,645.8234830575257,0.03289473684210531
93,645.8234830575257,0.03947368421052633
94,648.6209613869187,0.03289473684210531
95,651.4184397163122,0.03289473684210531
96,654.2159180457052,0.03289473684210531
97,657.0133963750986,0.03289473684210531
98,657.0133963750986,0.02631578947368418
99,659.8108747044917,0.02631578947368418
100,662.6083530338851,0.02631578947368418
101,665.4058313632781,0.02631578947368418
102,668.2033096926716,0.02631578947368418
103,671.0007880220646,0.02631578947368418
104,673.7982663514576,0.02631578947368418
105,676.5957446808511,0.02631578947368418
106,679.3932230102441,0.02631578947368418
107,682.1907013396376,0.02631578947368418
108,684.9881796690306,0.02631578947368418
109,687.7856579984241,0.02631578947368418
110,690.5831363278171,0.02631578947368418
111,693.3806146572106,0.02631578947368418
112,693.3806146572106,0.019736842105263164
113,696.1780929866036,0.019736842105263164
114,698.9755713159971,0.019736842105263164
115,701.7730496453901,0.019736842105263164
116,704.5705279747831,0.019736842105263164
117,707.3680063041766,0.019736842105263164
118,710.1654846335696,0.019736842105263164
119,712.962962962963,0.02631578947368418
120,712.962962962963,0.019736842105263164
121,715.7604412923561,0.02631578947368418
122,718.5579196217495,0.03947368421052633
123,718.5579196217495,0.02631578947368418
124,718.5579196217495,0.03289473684210531
125,721.3553979511425,0.03947368421052633
126,721.3553979511425,0.046052631578947345
127,724.152876280536,0.052631578947368474
128,724.152876280536,0.046052631578947345
129,726.950354609929,0.046052631578947345
130,726.950354609929,0.052631578947368474
131,729.7478329393225,0.046052631578947345
132,729.7478329393225,0.03947368421052633
133,732.5453112687155,0.03947368421052633
134,735.3427895981085,0.03947368421052633
135,738.140267927502,0.03947368421052633
136,740.937746256895,0.03947368421052633
137,743.7352245862885,0.03947368421052633
138,746.5327029156815,0.03947368421052633
139,749.330181245075,0.03947368421052633
140,749.330181245075,0.046052631578947345
141,752.127659574468,0.046052631578947345
142,754.9251379038615,0.052631578947368474
143,754.9251379038615,0.046052631578947345
144,757.7226162332545,0.052631578947368474
145,760.520094562648,0.052631578947368474
146,763.317572892041,0.052631578947368474
147,763.317572892041,0.05921052631578949
148,766.115051221434,0.05921052631578949
149,768.9125295508275,0.052631578947368474
150,768.9125295508275,0.05921052631578949
151,771.7100078802205,0.052631578947368474
152,774.507486209614,0.052631578947368474
153,774.507486209614,0.046052631578947345
154,777.304964539007,0.046052631578947345
155,780.1024428684004,0.046052631578947345
156,782.8999211977934,0.046052631578947345
157,785.6973995271869,0.046052631578947345
158,785.6973995271869,0.03947368421052633
159,788.4948778565799,0.03947368421052633
160,791.2923561859734,0.03947368421052633
161,794.0898345153664,0.03947368421052633
162,796.8873128447594,0.03947368421052633
163,799.6847911741529,0.03947368421052633
164,802.4822695035459,0.03947368421052633
165,805.2797478329394,0.03947368421052633
166,808.0772261623324,0.03947368421052633
167,810.8747044917259,0.03947368421052633
168,813.6721828211189,0.03947368421052633
169,816.4696611505124,0.03947368421052633
170,819.2671394799054,0.03947368421052633
171,819.2671394799054,0.046052631578947345
172,822.0646178092989,0.046052631578947345
173,824.8620961386919,0.046052631578947345
174,827.6595744680849,0.046052631578947345
175,830.4570527974784,0.046052631578947345
176,833.2545311268714,0.046052631578947345
177,836.0520094562648,0.046052631578947345
178,836.0520094562648,0.03947368421052633
179,838.8494877856579,0.03947368421052633
180,841.6469661150513,0.03947368421052633
181,844.4444444444443,0.03947368421052633
182,847.2419227738378,0.03947368421052633
183,850.0394011032308,0.03947368421052633
184,852.8368794326243,0.03947368421052633
185,855.6343577620173,0.03947368421052633
186,858.4318360914103,0.03947368421052633
187,861.2293144208038,0.03947368421052633
188,861.2293144208038,0.046052631578947345
189,864.0267927501968,0.046052631578947345
190,866.8242710795903,0.046052631578947345
191,869.6217494089833,0.046052631578947345
192,872.4192277383768,0.046052631578947345
193,875.2167060677698,0.046052631578947345
194,878.0141843971633,0.046052631578947345
195,880.8116627265563,0.046052631578947345
196,883.6091410559497,0.052631578947368474
197,883.6091410559497,0.046052631578947345
198,886.4066193853428,0.052631578947368474
199,886.4066193853428,0.05921052631578949
200,889.2040977147362,0.05921052631578949
201,892.0015760441293,0.05921052631578949
202,894.7990543735223,0.05921052631578949
203,894.7990543735223,0.06578947368421051
204,897.5965327029157,0.06578947368421051
205,900.3940110323088,0.06578947368421051
206,900.3940110323088,0.07236842105263153
207,903.1914893617022,0.07236842105263153
208,905.9889676910952,0.07236842105263153
209,908.7864460204887,0.07236842105263153
210,911.5839243498817,0.07236842105263153
211,911.5839243498817,0.07894736842105265
212,914.3814026792752,0.07894736842105265
213,917.1788810086682,0.07894736842105265
214,917.1788810086682,0.08552631578947367
215,919.9763593380617,0.09210526315789469
216,919.9763593380617,0.08552631578947367
217,922.7738376674547,0.09210526315789469
218,922.7738376674547,0.09868421052631582
219,925.5713159968477,0.10526315789473684
220,925.5713159968477,0.09868421052631582
221,928.3687943262412,0.10526315789473684
222,928.3687943262412,0.11184210526315785
223,931.1662726556342,0.11842105263157898
224,931.1662726556342,0.13157894736842102
225,931.1662726556342,0.125
226,931.1662726556342,0.11184210526315785
227,933.9637509850277,0.13815789473684215
228,933.9637509850277,0.13157894736842102
229,936.7612293144207,0.13815789473684215
230,936.7612293144207,0.14473684210526316
231,939.5587076438142,0.14473684210526316
232,942.3561859732072,0.15131578947368418
233,942.3561859732072,0.14473684210526316
234,945.1536643026006,0.14473684210526316
235,947.9511426319937,0.14473684210526316
236,947.9511426319937,0.13815789473684215
237,950.7486209613871,0.13157894736842102
238,950.7486209613871,0.13815789473684215
239,953.5460992907801,0.125
240,953.5460992907801,0.13157894736842102
241,956.3435776201732,0.11842105263157898
242,956.3435776201732,0.125
243,959.1410559495666,0.11184210526315785
244,959.1410559495666,0.11842105263157898
245,961.9385342789597,0.10526315789473684
246,961.9385342789597,0.11184210526315785
247,964.7360126083531,0.09868421052631582
248,964.7360126083531,0.10526315789473684
249,967.5334909377461,0.09868421052631582
250,970.3309692671396,0.09868421052631582
251,973.1284475965326,0.09868421052631582
252,975.9259259259261,0.09868421052631582
253,978.7234042553191,0.10526315789473684
254,978.7234042553191,0.09868421052631582
255,981.5208825847126,0.10526315789473684
256,984.3183609141056,0.10526315789473684
257,987.1158392434986,0.11184210526315785
258,987.1158392434986,0.10526315789473684
259,989.9133175728921,0.11842105263157898
260,989.9133175728921,0.11184210526315785
261,992.7107959022851,0.125
262,992.7107959022851,0.11842105263157898
263,995.5082742316786,0.125
264,995.5082742316786,0.13157894736842102
265,998.3057525610716,0.13815789473684215
266,998.3057525610716,0.13157894736842102
267,998.3057525610716,0.14473684210526316
268,1001.103230890465,0.1578947368421053
269,1001.103230890465,0.15131578947368418
270,1001.103230890465,0.14473684210526316
271,1003.9007092198581,0.16447368421052633
272,1003.9007092198581,0.17763157894736847
273,1003.9007092198581,0.1842105263157895
274,1003.9007092198581,0.1578947368421053
275,1003.9007092198581,0.17105263157894735
276,1006.6981875492515,0.1907894736842105
277,1006.6981875492515,0.20394736842105265
278,1006.6981875492515,0.1842105263157895
279,1006.6981875492515,0.19736842105263153
280,1009.4956658786446,0.21052631578947367
281,1009.4956658786446,0.22368421052631582
282,1009.4956658786446,0.20394736842105265
283,1009.4956658786446,0.23684210526315785
284,1009.4956658786446,0.23026315789473684
285,1009.4956658786446,0.2171052631578947
286,1009.4956658786446,0.24342105263157898
287,1012.293144208038,0.25
288,1012.293144208038,0.26315789473684215
289,1012.293144208038,0.256578947368421
290,1012.293144208038,0.26973684210526316
291,1012.293144208038,0.24342105263157898
292,1015.090622537431,0.2828947368421053
293,1015.090622537431,0.26973684210526316
294,1015.090622537431,0.2763157894736842
295,1017.8881008668241,0.2828947368421053
296,1017.8881008668241,0.29605263157894735
297,1017.8881008668241,0.2894736842105263
298,1020.6855791962175,0.29605263157894735
299,1023.4830575256105,0.2763157894736842
300,1023.4830575256105,0.29605263157894735
301,1023.4830575256105,0.2894736842105263
302,1023.4830575256105,0.2828947368421053
303,1026.280535855004,0.26973684210526316
304,1026.280535855004,0.2763157894736842
305,1029.078014184397,0.25
306,1029.078014184397,0.26973684210526316
307,1029.078014184397,0.26315789473684215
308,1029.078014184397,0.256578947368421
309,1031.8754925137905,0.25
310,1034.6729708431835,0.24342105263157898
311,1034.6729708431835,0.25
312,1037.470449172577,0.24342105263157898
313,1040.26792750197,0.24342105263157898
314,1040.26792750197,0.25
315,1043.0654058313635,0.24342105263157898
316,1043.0654058313635,0.25
317,1045.8628841607565,0.24342105263157898
318,1048.6603624901495,0.24342105263157898
319,1048.6603624901495,0.23684210526315785
320,1048.6603624901495,0.23026315789473684
321,1051.457840819543,0.23026315789473684
322,1054.255319148936,0.23026315789473684
323,1054.255319148936,0.22368421052631582
324,1057.0527974783295,0.22368421052631582
325,1059.8502758077225,0.22368421052631582
326,1062.647754137116,0.22368421052631582
327,1065.445232466509,0.22368421052631582
328,1068.2427107959024,0.22368421052631582
329,1071.0401891252955,0.22368421052631582
330,1073.837667454689,0.2171052631578947
331,1073.837667454689,0.22368421052631582
332,1076.635145784082,0.2171052631578947
333,1079.432624113475,0.2171052631578947
334,1082.2301024428684,0.2171052631578947
335,1085.0275807722614,0.2171052631578947
336,1087.825059101655,0.2171052631578947
337,1090.622537431048,0.2171052631578947
338,1090.622537431048,0.22368421052631582
339,1093.4200157604414,0.22368421052631582
340,1096.2174940898344,0.22368421052631582
341,1096.2174940898344,0.23026315789473684
342,1099.014972419228,0.23026315789473684
343,1099.014972419228,0.23684210526315785
344,1101.812450748621,0.23684210526315785
345,1104.6099290780144,0.24342105263157898
346,1104.6099290780144,0.23684210526315785
347,1104.6099290780144,0.25
348,1107.4074074074074,0.25
349,1110.2048857368004,0.256578947368421
350,1110.2048857368004,0.25
351,1110.2048857368004,0.26315789473684215
352,1113.0023640661939,0.26315789473684215
353,1115.799842395587,0.26315789473684215
354,1115.799842395587,0.26973684210526316
355,1118.5973207249804,0.26973684210526316
356,1121.3947990543734,0.26973684210526316
357,1121.3947990543734,0.26315789473684215
358,1124.1922773837669,0.256578947368421
359,1124.1922773837669,0.26315789473684215
360,1126.9897557131599,0.25
361,1126.9897557131599,0.256578947368421
362,1129.7872340425533,0.24342105263157898
363,1129.7872340425533,0.23026315789473684
364,1129.7872340425533,0.25
365,1129.7872340425533,0.23684210526315785
366,1132.5847123719464,0.23026315789473684
367,1132.5847123719464,0.22368421052631582
368,1135.3821907013398,0.22368421052631582
369,1135.3821907013398,0.2171052631578947
370,1138.1796690307328,0.2171052631578947
371,1140.9771473601263,0.22368421052631582
372,1140.9771473601263,0.2171052631578947
373,1143.7746256895193,0.22368421052631582
374,1143.7746256895193,0.23026315789473684
375,1146.5721040189123,0.256578947368421
376,1146.5721040189123,0.23684210526315785
377,1146.5721040189123,0.26315789473684215
378,1146.5721040189123,0.25
379,1146.5721040189123,0.23026315789473684
380,1146.5721040189123,0.24342105263157898
381,1149.3695823483058,0.2894736842105263
382,1149.3695823483058,0.2763157894736842
383,1149.3695823483058,0.26315789473684215
384,1149.3695823483058,0.2828947368421053
385,1149.3695823483058,0.26973684210526316
386,1152.1670606776988,0.3092105263157895
387,1152.1670606776988,0.29605263157894735
388,1152.1670606776988,0.3157894736842105
389,1152.1670606776988,0.2894736842105263
390,1152.1670606776988,0.32894736842105265
391,1152.1670606776988,0.3355263157894737
392,1152.1670606776988,0.3026315789473685
393,1152.1670606776988,0.3223684210526315
394,1154.9645390070923,0.3355263157894737
395,1154.9645390070923,0.3421052631578947
396,1154.9645390070923,0.3486842105263158
397,1154.9645390070923,0.35526315789473684
398,1157.7620173364853,0.375
399,1157.7620173364853,0.35526315789473684
400,1157.7620173364853,0.381578947368421
401,1157.7620173364853,0.36184210526315785
402,1157.7620173364853,0.368421052631579
403,1160.5594956658788,0.39473684210526316
404,1160.5594956658788,0.38815789473684215
405,1160.5594956658788,0.381578947368421
406,1160.5594956658788,0.4013157894736842
407,1160.5594956658788,0.4078947368421053
408,1163.3569739952718,0.42105263157894735
409,1163.3569739952718,0.4078947368421053
410,1163.3569739952718,0.4144736842105263
411,1166.1544523246653,0.42105263157894735
412,1168.9519306540583,0.42105263157894735
413,1168.9519306540583,0.4144736842105263
414,1171.7494089834518,0.4078947368421053
415,1171.7494089834518,0.39473684210526316
416,1171.7494089834518,0.381578947368421
417,1171.7494089834518,0.4013157894736842
418,1171.7494089834518,0.4144736842105263
419,1171.7494089834518,0.38815789473684215
420,1174.5468873128448,0.375
421,1174.5468873128448,0.36184210526315785
422,1174.5468873128448,0.368421052631579
423,1174.5468873128448,0.381578947368421
424,1177.3443656422378,0.36184210526315785
425,1177.3443656422378,0.3223684210526315
426,1177.3443656422378,0.35526315789473684
427,1177.3443656422378,0.3421052631578947
428,1177.3443656422378,0.32894736842105265
429,1177.3443656422378,0.3355263157894737
430,1177.3443656422378,0.3486842105263158
431,1180.1418439716313,0.3026315789473685
432,1180.1418439716313,0.3092105263157895
433,1180.1418439716313,0.3223684210526315
434,1180.1418439716313,0.3157894736842105
435,1182.9393223010243,0.2828947368421053
436,1182.9393223010243,0.2894736842105263
437,1182.9393223010243,0.29605263157894735
438,1182.9393223010243,0.3026315789473685
439,1185.7368006304177,0.256578947368421
440,1185.7368006304177,0.26973684210526316
441,1185.7368006304177,0.2763157894736842
442,1185.7368006304177,0.2828947368421053
443,1185.7368006304177,0.26315789473684215
444,1188.5342789598108,0.256578947368421
445,1188.5342789598108,0.25
446,1191.3317572892042,0.24342105263157898
447,1191.3317572892042,0.25
448,1194.1292356185972,0.24342105263157898
449,1196.9267139479907,0.256578947368421
450,1196.9267139479907,0.24342105263157898
451,1196.9267139479907,0.25
452,1199.7241922773837,0.256578947368421
453,1199.7241922773837,0.26315789473684215
454,1202.5216706067772,0.2763157894736842
455,1202.5216706067772,0.2828947368421053
456,1202.5216706067772,0.26315789473684215
457,1202.5216706067772,0.26973684210526316
458,1205.3191489361702,0.29605263157894735
459,1205.3191489361702,0.2828947368421053
460,1205.3191489361702,0.2894736842105263
461,1208.1166272655632,0.3092105263157895
462,1208.1166272655632,0.3355263157894737
463,1208.1166272655632,0.3157894736842105
464,1208.1166272655632,0.29605263157894735
465,1208.1166272655632,0.3223684210526315
466,1208.1166272655632,0.3026315789473685
467,1208.1166272655632,0.32894736842105265
468,1210.9141055949567,0.3355263157894737
469,1210.9141055949567,0.3421052631578947
470,1210.9141055949567,0.35526315789473684
