,wavenumbers,absorbance
0,452.797478329393,0.02631578947368418
1,452.797478329393,0.019736842105263164
2,455.5949566587865,0.02631578947368418
3,458.3924349881795,0.02631578947368418
4,461.189913317573,0.02631578947368418
5,463.987391646966,0.02631578947368418
6,463.987391646966,0.019736842105263164
7,466.78486997635946,0.019736842105263164
8,469.5823483057525,0.019736842105263164
9,472.37982663514595,0.019736842105263164
10,475.17730496453896,0.019736842105263164
11,477.97478329393243,0.019736842105263164
12,480.77226162332545,0.019736842105263164
13,483.56973995271846,0.019736842105263164
14,486.36721828211193,0.019736842105263164
15,489.16469661150495,0.019736842105263164
16,491.9621749408984,0.019736842105263164
17,494.75965327029144,0.019736842105263164
18,497.5571315996849,0.02631578947368418
19,497.5571315996849,0.019736842105263164
20,500.3546099290779,0.02631578947368418
21,503.1520882584714,0.02631578947368418
22,505.9495665878644,0.02631578947368418
23,508.7470449172579,0.02631578947368418
24,511.5445232466509,0.02631578947368418
25,514.3420015760439,0.03289473684210531
26,514.3420015760439,0.02631578947368418
27,517.1394799054374,0.02631578947368418
28,517.1394799054374,0.03289473684210531
29,519.9369582348304,0.02631578947368418
30,522.7344365642239,0.02631578947368418
31,525.5319148936169,0.03289473684210531
32,525.5319148936169,0.02631578947368418
33,528.3293932230104,0.03289473684210531
34,531.1268715524034,0.03289473684210531
35,533.9243498817968,0.03289473684210531
36,536.7218282111899,0.03289473684210531
37,536.7218282111899,0.03947368421052633
38,539.5193065405833,0.03947368421052633
39,542.3167848699763,0.03947368421052633
40,545.1142631993694,0.03947368421052633
41,547.9117415287628,0.03947368421052633
42,550.7092198581558,0.03947368421052633
43,553.5066981875493,0.03947368421052633
44,553.5066981875493,0.046052631578947345
45,556.3041765169423,0.046052631578947345
46,559.1016548463358,0.046052631578947345
47,561.8991331757288,0.046052631578947345
48,564.6966115051223,0.046052631578947345
49,567.4940898345153,0.046052631578947345
50,570.2915681639088,0.046052631578947345
51,573.0890464933018,0.052631578947368474
52,573.0890464933018,0.046052631578947345
53,578.6840031520883,0.052631578947368474
54,581.4814814814813,0.052631578947368474
55,584.2789598108748,0.052631578947368474
56,587.0764381402678,0.052631578947368474
57,589.8739164696613,0.052631578947368474
58,592.6713947990543,0.052631578947368474
59,595.4688731284477,0.052631578947368474
60,598.2663514578408,0.052631578947368474
61,601.0638297872342,0.052631578947368474
62,603.8613081166272,0.052631578947368474
63,603.8613081166272,0.05921052631578949
64,606.6587864460207,0.05921052631578949
65,609.4562647754137,0.05921052631578949
66,612.2537431048067,0.05921052631578949
67,615.0512214342002,0.05921052631578949
68,617.8486997635932,0.05921052631578949
69,620.6461780929867,0.05921052631578949
70,623.4436564223797,0.05921052631578949
71,626.2411347517732,0.05921052631578949
72,629.0386130811662,0.06578947368421051
73,629.0386130811662,0.05921052631578949
74,631.8360914105597,0.06578947368421051
75,634.6335697399527,0.06578947368421051
76,637.4310480693462,0.06578947368421051
77,640.2285263987392,0.06578947368421051
78,643.0260047281322,0.06578947368421051
79,645.8234830575257,0.06578947368421051
80,648.6209613869187,0.06578947368421051
81,651.4184397163122,0.06578947368421051
82,654.2159180457052,0.06578947368421051
83,654.2159180457052,0.07236842105263153
84,657.0133963750986,0.07236842105263153
85,659.8108747044917,0.07236842105263153
86,662.6083530338851,0.07236842105263153
87,665.4058313632781,0.07236842105263153
88,668.2033096926716,0.07236842105263153
89,671.0007880220646,0.07236842105263153
90,673.7982663514576,0.07236842105263153
91,676.5957446808511,0.07236842105263153
92,679.3932230102441,0.07236842105263153
93,682.1907013396376,0.07236842105263153
94,684.9881796690306,0.07236842105263153
95,687.7856579984241,0.07236842105263153
96,690.5831363278171,0.07236842105263153
97,693.3806146572106,0.07236842105263153
98,696.1780929866036,0.07236842105263153
99,698.9755713159971,0.07236842105263153
100,701.7730496453901,0.07236842105263153
101,704.5705279747831,0.07894736842105265
102,704.5705279747831,0.07236842105263153
103,707.3680063041766,0.08552631578947367
104,707.3680063041766,0.07894736842105265
105,710.1654846335696,0.08552631578947367
106,712.962962962963,0.08552631578947367
107,712.962962962963,0.09868421052631582
108,712.962962962963,0.09210526315789469
109,715.7604412923561,0.09868421052631582
110,715.7604412923561,0.10526315789473684
111,718.5579196217495,0.09868421052631582
112,718.5579196217495,0.10526315789473684
113,721.3553979511425,0.09868421052631582
114,721.3553979511425,0.09210526315789469
115,724.152876280536,0.09210526315789469
116,724.152876280536,0.08552631578947367
117,726.950354609929,0.08552631578947367
118,729.7478329393225,0.08552631578947367
119,729.7478329393225,0.07894736842105265
120,732.5453112687155,0.07894736842105265
121,732.5453112687155,0.07236842105263153
122,735.3427895981085,0.07236842105263153
123,738.140267927502,0.07236842105263153
124,738.140267927502,0.06578947368421051
125,740.937746256895,0.06578947368421051
126,743.7352245862885,0.05921052631578949
127,743.7352245862885,0.06578947368421051
128,746.5327029156815,0.05921052631578949
129,749.330181245075,0.05921052631578949
130,752.127659574468,0.05921052631578949
131,754.9251379038615,0.05921052631578949
132,754.9251379038615,0.052631578947368474
133,757.7226162332545,0.052631578947368474
134,760.520094562648,0.052631578947368474
135,763.317572892041,0.052631578947368474
136,766.115051221434,0.052631578947368474
137,768.9125295508275,0.052631578947368474
138,768.9125295508275,0.046052631578947345
139,771.7100078802205,0.046052631578947345
140,774.507486209614,0.046052631578947345
141,777.304964539007,0.046052631578947345
142,780.1024428684004,0.046052631578947345
143,782.8999211977934,0.046052631578947345
144,785.6973995271869,0.046052631578947345
145,788.4948778565799,0.046052631578947345
146,791.2923561859734,0.046052631578947345
147,794.0898345153664,0.046052631578947345
148,796.8873128447594,0.046052631578947345
149,799.6847911741529,0.046052631578947345
150,802.4822695035459,0.046052631578947345
151,805.2797478329394,0.046052631578947345
152,808.0772261623324,0.046052631578947345
153,810.8747044917259,0.03947368421052633
154,810.8747044917259,0.046052631578947345
155,813.6721828211189,0.03947368421052633
156,816.4696611505124,0.03947368421052633
157,819.2671394799054,0.03947368421052633
158,822.0646178092989,0.03289473684210531
159,822.0646178092989,0.03947368421052633
160,824.8620961386919,0.03289473684210531
161,827.6595744680849,0.03289473684210531
162,830.4570527974784,0.03289473684210531
163,833.2545311268714,0.03289473684210531
164,836.0520094562648,0.03289473684210531
165,838.8494877856579,0.03289473684210531
166,841.6469661150513,0.03289473684210531
167,844.4444444444443,0.02631578947368418
168,844.4444444444443,0.03289473684210531
169,847.2419227738378,0.02631578947368418
170,850.0394011032308,0.02631578947368418
171,852.8368794326243,0.02631578947368418
172,855.6343577620173,0.02631578947368418
173,858.4318360914103,0.02631578947368418
174,861.2293144208038,0.02631578947368418
175,864.0267927501968,0.02631578947368418
176,866.8242710795903,0.019736842105263164
177,866.8242710795903,0.02631578947368418
178,869.6217494089833,0.019736842105263164
179,872.4192277383768,0.019736842105263164
180,875.2167060677698,0.019736842105263164
181,878.0141843971633,0.019736842105263164
182,880.8116627265563,0.019736842105263164
183,883.6091410559497,0.019736842105263164
184,886.4066193853428,0.019736842105263164
185,889.2040977147362,0.019736842105263164
186,892.0015760441293,0.019736842105263164
187,894.7990543735223,0.019736842105263164
188,897.5965327029157,0.019736842105263164
189,900.3940110323088,0.019736842105263164
190,900.3940110323088,0.02631578947368418
191,903.1914893617022,0.02631578947368418
192,905.9889676910952,0.02631578947368418
193,908.7864460204887,0.02631578947368418
194,911.5839243498817,0.02631578947368418
195,914.3814026792752,0.02631578947368418
196,917.1788810086682,0.02631578947368418
197,919.9763593380617,0.02631578947368418
198,922.7738376674547,0.02631578947368418
199,925.5713159968477,0.02631578947368418
200,928.3687943262412,0.02631578947368418
201,931.1662726556342,0.03289473684210531
202,931.1662726556342,0.02631578947368418
203,933.9637509850277,0.03289473684210531
204,936.7612293144207,0.03289473684210531
205,939.5587076438142,0.03289473684210531
206,942.3561859732072,0.03289473684210531
207,945.1536643026006,0.03289473684210531
208,947.9511426319937,0.03289473684210531
209,950.7486209613871,0.03289473684210531
210,953.5460992907801,0.03289473684210531
211,956.3435776201732,0.03289473684210531
212,959.1410559495666,0.03289473684210531
213,961.9385342789597,0.03289473684210531
214,964.7360126083531,0.03289473684210531
215,967.5334909377461,0.03289473684210531
216,970.3309692671396,0.03289473684210531
217,973.1284475965326,0.03289473684210531
218,975.9259259259261,0.03289473684210531
219,978.7234042553191,0.03289473684210531
220,981.5208825847126,0.03289473684210531
221,984.3183609141056,0.03289473684210531
222,987.1158392434986,0.03289473684210531
223,989.9133175728921,0.03289473684210531
224,992.7107959022851,0.03289473684210531
225,995.5082742316786,0.03289473684210531
226,998.3057525610716,0.03289473684210531
227,1001.103230890465,0.03289473684210531
228,1003.9007092198581,0.03289473684210531
229,1006.6981875492515,0.03947368421052633
230,1006.6981875492515,0.03289473684210531
231,1009.4956658786446,0.03947368421052633
232,1012.293144208038,0.03947368421052633
233,1015.090622537431,0.03947368421052633
234,1017.8881008668241,0.03947368421052633
235,1020.6855791962175,0.03947368421052633
236,1023.4830575256105,0.03947368421052633
237,1026.280535855004,0.03947368421052633
238,1029.078014184397,0.03947368421052633
239,1031.8754925137905,0.03947368421052633
240,1034.6729708431835,0.03947368421052633
241,1037.470449172577,0.03947368421052633
242,1040.26792750197,0.03947368421052633
243,1043.0654058313635,0.03947368421052633
244,1045.8628841607565,0.03947368421052633
245,1048.6603624901495,0.03947368421052633
246,1051.457840819543,0.03947368421052633
247,1054.255319148936,0.03947368421052633
248,1057.0527974783295,0.03947368421052633
249,1059.8502758077225,0.03947368421052633
250,1062.647754137116,0.03947368421052633
251,1065.445232466509,0.03947368421052633
252,1068.2427107959024,0.03947368421052633
253,1071.0401891252955,0.03947368421052633
254,1071.0401891252955,0.046052631578947345
255,1073.837667454689,0.046052631578947345
256,1073.837667454689,0.03947368421052633
257,1076.635145784082,0.03947368421052633
258,1079.432624113475,0.03947368421052633
259,1082.2301024428684,0.03947368421052633
260,1085.0275807722614,0.03947368421052633
261,1087.825059101655,0.03947368421052633
262,1090.622537431048,0.03947368421052633
263,1093.4200157604414,0.03947368421052633
264,1096.2174940898344,0.03947368421052633
265,1099.014972419228,0.03947368421052633
266,1101.812450748621,0.03947368421052633
267,1104.6099290780144,0.03947368421052633
268,1107.4074074074074,0.03947368421052633
269,1110.2048857368004,0.03947368421052633
270,1113.0023640661939,0.03947368421052633
271,1115.799842395587,0.03947368421052633
272,1118.5973207249804,0.03947368421052633
273,1121.3947990543734,0.03947368421052633
274,1124.1922773837669,0.03947368421052633
275,1126.9897557131599,0.03947368421052633
276,1129.7872340425533,0.03947368421052633
277,1132.5847123719464,0.03947368421052633
278,1135.3821907013398,0.03947368421052633
279,1135.3821907013398,0.046052631578947345
280,1138.1796690307328,0.046052631578947345
281,1140.9771473601263,0.046052631578947345
282,1143.7746256895193,0.046052631578947345
283,1146.5721040189123,0.046052631578947345
284,1149.3695823483058,0.046052631578947345
285,1152.1670606776988,0.046052631578947345
286,1154.9645390070923,0.046052631578947345
287,1157.7620173364853,0.046052631578947345
288,1160.5594956658788,0.03947368421052633
289,1160.5594956658788,0.046052631578947345
290,1163.3569739952718,0.03947368421052633
291,1166.1544523246653,0.03947368421052633
292,1168.9519306540583,0.03947368421052633
293,1171.7494089834518,0.03947368421052633
294,1174.5468873128448,0.03947368421052633
295,1177.3443656422378,0.03947368421052633
296,1180.1418439716313,0.03289473684210531
297,1180.1418439716313,0.03947368421052633
298,1182.9393223010243,0.03289473684210531
299,1185.7368006304177,0.03289473684210531
300,1188.5342789598108,0.03289473684210531
301,1191.3317572892042,0.03289473684210531
302,1194.1292356185972,0.03289473684210531
303,1196.9267139479907,0.03289473684210531
304,1199.7241922773837,0.03289473684210531
305,1202.5216706067772,0.03289473684210531
306,1205.3191489361702,0.03289473684210531
307,1208.1166272655632,0.03289473684210531
308,1210.9141055949567,0.03289473684210531
309,1213.7115839243497,0.03289473684210531
310,1216.5090622537432,0.03289473684210531
311,1219.3065405831362,0.03289473684210531
312,1222.1040189125297,0.03289473684210531
313,1224.9014972419227,0.03289473684210531
314,1227.6989755713162,0.03289473684210531
315,1230.4964539007092,0.03289473684210531
316,1233.2939322301027,0.03289473684210531
317,1236.0914105594957,0.03289473684210531
318,1238.8888888888887,0.03289473684210531
319,1241.6863672182822,0.03289473684210531
320,1244.4838455476752,0.03289473684210531
321,1247.2813238770686,0.03289473684210531
322,1250.0788022064617,0.03289473684210531
323,1252.8762805358551,0.03289473684210531
324,1255.6737588652481,0.03289473684210531
325,1258.4712371946416,0.03289473684210531
326,1261.2687155240346,0.03289473684210531
327,1264.066193853428,0.03289473684210531
328,1266.8636721828211,0.03289473684210531
329,1269.6611505122141,0.03289473684210531
330,1272.4586288416076,0.03289473684210531
331,1275.2561071710006,0.03289473684210531
332,1278.053585500394,0.03289473684210531
333,1280.851063829787,0.03289473684210531
334,1283.6485421591806,0.03289473684210531
335,1286.4460204885736,0.03289473684210531
336,1286.4460204885736,0.03947368421052633
337,1289.243498817967,0.03947368421052633
338,1292.04097714736,0.03947368421052633
339,1294.8384554767536,0.03947368421052633
340,1297.6359338061466,0.03947368421052633
341,1300.4334121355396,0.03947368421052633
342,1303.230890464933,0.03947368421052633
343,1306.028368794326,0.03947368421052633
344,1308.8258471237195,0.03947368421052633
345,1311.6233254531126,0.03947368421052633
346,1314.420803782506,0.03947368421052633
347,1314.420803782506,0.03289473684210531
348,1317.218282111899,0.03289473684210531
349,1320.0157604412925,0.03289473684210531
350,1322.8132387706855,0.03289473684210531
351,1325.610717100079,0.03947368421052633
352,1325.610717100079,0.03289473684210531
353,1328.408195429472,0.03947368421052633
354,1331.205673758865,0.03947368421052633
355,1334.0031520882585,0.03947368421052633
356,1334.0031520882585,0.046052631578947345
357,1336.8006304176515,0.046052631578947345
358,1339.598108747045,0.046052631578947345
359,1342.395587076438,0.046052631578947345
360,1345.1930654058315,0.052631578947368474
361,1345.1930654058315,0.046052631578947345
362,1347.9905437352245,0.052631578947368474
363,1350.788022064618,0.052631578947368474
364,1353.585500394011,0.052631578947368474
365,1356.3829787234044,0.05921052631578949
366,1356.3829787234044,0.052631578947368474
367,1359.1804570527975,0.05921052631578949
368,1359.1804570527975,0.06578947368421051
369,1361.9779353821905,0.06578947368421051
370,1364.775413711584,0.07894736842105265
371,1364.775413711584,0.06578947368421051
372,1364.775413711584,0.07236842105263153
373,1367.572892040977,0.09210526315789469
374,1367.572892040977,0.09868421052631582
375,1367.572892040977,0.07894736842105265
376,1367.572892040977,0.08552631578947367
377,1370.3703703703704,0.1578947368421053
378,1370.3703703703704,0.16447368421052633
379,1370.3703703703704,0.14473684210526316
380,1370.3703703703704,0.11842105263157898
381,1370.3703703703704,0.09868421052631582
382,1370.3703703703704,0.13815789473684215
383,1370.3703703703704,0.13157894736842102
384,1370.3703703703704,0.10526315789473684
385,1370.3703703703704,0.125
386,1370.3703703703704,0.11184210526315785
387,1370.3703703703704,0.15131578947368418
388,1373.1678486997635,0.16447368421052633
389,1375.965327029157,0.13815789473684215
390,1375.965327029157,0.08552631578947367
391,1375.965327029157,0.125
392,1375.965327029157,0.15131578947368418
393,1375.965327029157,0.11842105263157898
394,1375.965327029157,0.13157894736842102
395,1375.965327029157,0.11184210526315785
396,1375.965327029157,0.16447368421052633
397,1375.965327029157,0.10526315789473684
398,1375.965327029157,0.09210526315789469
399,1375.965327029157,0.1578947368421053
400,1375.965327029157,0.09868421052631582
401,1375.965327029157,0.14473684210526316
402,1378.76280535855,0.08552631578947367
403,1378.76280535855,0.05921052631578949
404,1378.76280535855,0.06578947368421051
405,1378.76280535855,0.07236842105263153
406,1378.76280535855,0.07894736842105265
407,1381.5602836879434,0.05921052631578949
408,1381.5602836879434,0.052631578947368474
409,1381.5602836879434,0.046052631578947345
410,1384.3577620173364,0.03947368421052633
411,1384.3577620173364,0.046052631578947345
412,1387.15524034673,0.03289473684210531
413,1387.15524034673,0.03947368421052633
414,1389.952718676123,0.03289473684210531
415,1392.750197005516,0.03289473684210531
416,1395.5476753349094,0.03289473684210531
417,1398.3451536643024,0.03289473684210531
418,1401.1426319936959,0.03289473684210531
419,1403.940110323089,0.03289473684210531
420,1406.7375886524824,0.03289473684210531
421,1409.5350669818754,0.03289473684210531
422,1409.5350669818754,0.03947368421052633
423,1412.3325453112689,0.03947368421052633
424,1412.3325453112689,0.03289473684210531
425,1415.1300236406619,0.03289473684210531
426,1417.9275019700553,0.03289473684210531
427,1417.9275019700553,0.03947368421052633
428,1420.7249802994484,0.046052631578947345
429,1420.7249802994484,0.03947368421052633
430,1423.5224586288418,0.052631578947368474
431,1423.5224586288418,0.046052631578947345
432,1426.3199369582348,0.052631578947368474
433,1426.3199369582348,0.05921052631578949
434,1426.3199369582348,0.06578947368421051
435,1429.1174152876279,0.07236842105263153
436,1429.1174152876279,0.06578947368421051
437,1431.9148936170213,0.07894736842105265
438,1431.9148936170213,0.07236842105263153
439,1434.7123719464144,0.07894736842105265
440,1434.7123719464144,0.08552631578947367
441,1437.5098502758078,0.08552631578947367
442,1437.5098502758078,0.09210526315789469
443,1440.3073286052008,0.09868421052631582
444,1440.3073286052008,0.09210526315789469
445,1443.1048069345943,0.09868421052631582
446,1443.1048069345943,0.10526315789473684
447,1443.1048069345943,0.11184210526315785
448,1445.9022852639873,0.13815789473684215
449,1445.9022852639873,0.13157894736842102
450,1445.9022852639873,0.11184210526315785
451,1445.9022852639873,0.11842105263157898
452,1445.9022852639873,0.125
453,1448.6997635933808,0.15131578947368418
454,1448.6997635933808,0.1578947368421053
455,1448.6997635933808,0.13815789473684215
456,1448.6997635933808,0.14473684210526316
457,1451.4972419227738,0.1842105263157895
458,1451.4972419227738,0.1578947368421053
459,1451.4972419227738,0.16447368421052633
460,1451.4972419227738,0.17105263157894735
461,1451.4972419227738,0.17763157894736847
