,wavenumbers,absorbance
0,452.797478329393,0.06578947368421051
1,452.797478329393,0.05921052631578949
2,455.5949566587865,0.05921052631578949
3,458.3924349881795,0.05921052631578949
4,461.189913317573,0.05921052631578949
5,463.987391646966,0.05921052631578949
6,463.987391646966,0.052631578947368474
7,466.78486997635946,0.052631578947368474
8,466.78486997635946,0.046052631578947345
9,469.5823483057525,0.046052631578947345
10,472.37982663514595,0.046052631578947345
11,475.17730496453896,0.03947368421052633
12,475.17730496453896,0.046052631578947345
13,477.97478329393243,0.03947368421052633
14,480.77226162332545,0.03947368421052633
15,483.56973995271846,0.03947368421052633
16,483.56973995271846,0.03289473684210531
17,486.36721828211193,0.03289473684210531
18,489.16469661150495,0.03289473684210531
19,491.9621749408984,0.03289473684210531
20,494.75965327029144,0.03289473684210531
21,494.75965327029144,0.02631578947368418
22,497.5571315996849,0.02631578947368418
23,500.3546099290779,0.02631578947368418
24,503.1520882584714,0.02631578947368418
25,505.9495665878644,0.02631578947368418
26,508.7470449172579,0.02631578947368418
27,511.5445232466509,0.02631578947368418
28,514.3420015760439,0.02631578947368418
29,517.1394799054374,0.03289473684210531
30,517.1394799054374,0.02631578947368418
31,519.9369582348304,0.03289473684210531
32,522.7344365642239,0.03289473684210531
33,525.5319148936169,0.046052631578947345
34,525.5319148936169,0.03289473684210531
35,525.5319148936169,0.03947368421052633
36,528.3293932230104,0.046052631578947345
37,528.3293932230104,0.052631578947368474
38,531.1268715524034,0.052631578947368474
39,533.9243498817968,0.05921052631578949
40,533.9243498817968,0.052631578947368474
41,536.7218282111899,0.05921052631578949
42,539.5193065405833,0.05921052631578949
43,542.3167848699763,0.05921052631578949
44,542.3167848699763,0.052631578947368474
45,545.1142631993694,0.052631578947368474
46,547.9117415287628,0.052631578947368474
47,550.7092198581558,0.052631578947368474
48,553.5066981875493,0.052631578947368474
49,553.5066981875493,0.046052631578947345
50,556.3041765169423,0.046052631578947345
51,559.1016548463358,0.046052631578947345
52,561.8991331757288,0.046052631578947345
53,564.6966115051223,0.03947368421052633
54,564.6966115051223,0.046052631578947345
55,567.4940898345153,0.03947368421052633
56,570.2915681639088,0.03947368421052633
57,573.0890464933018,0.03289473684210531
58,573.0890464933018,0.03947368421052633
59,575.8865248226948,0.03289473684210531
60,578.6840031520883,0.03289473684210531
61,581.4814814814813,0.03289473684210531
62,584.2789598108748,0.03289473684210531
63,587.0764381402678,0.03289473684210531
64,587.0764381402678,0.02631578947368418
65,589.8739164696613,0.02631578947368418
66,592.6713947990543,0.02631578947368418
67,595.4688731284477,0.02631578947368418
68,598.2663514578408,0.02631578947368418
69,601.0638297872342,0.02631578947368418
70,603.8613081166272,0.02631578947368418
71,606.6587864460207,0.02631578947368418
72,609.4562647754137,0.02631578947368418
73,612.2537431048067,0.02631578947368418
74,615.0512214342002,0.02631578947368418
75,617.8486997635932,0.02631578947368418
76,620.6461780929867,0.02631578947368418
77,623.4436564223797,0.02631578947368418
78,623.4436564223797,0.019736842105263164
79,626.2411347517732,0.019736842105263164
80,629.0386130811662,0.019736842105263164
81,631.8360914105597,0.019736842105263164
82,634.6335697399527,0.019736842105263164
83,637.4310480693462,0.019736842105263164
84,640.2285263987392,0.019736842105263164
85,643.0260047281322,0.019736842105263164
86,645.8234830575257,0.019736842105263164
87,648.6209613869187,0.019736842105263164
88,651.4184397163122,0.019736842105263164
89,654.2159180457052,0.019736842105263164
90,657.0133963750986,0.02631578947368418
91,657.0133963750986,0.019736842105263164
92,659.8108747044917,0.02631578947368418
93,662.6083530338851,0.02631578947368418
94,665.4058313632781,0.02631578947368418
95,668.2033096926716,0.03289473684210531
96,668.2033096926716,0.02631578947368418
97,671.0007880220646,0.03289473684210531
98,673.7982663514576,0.03289473684210531
99,676.5957446808511,0.03289473684210531
100,679.3932230102441,0.03289473684210531
101,679.3932230102441,0.03947368421052633
102,682.1907013396376,0.046052631578947345
103,682.1907013396376,0.03947368421052633
104,684.9881796690306,0.046052631578947345
105,684.9881796690306,0.05921052631578949
106,684.9881796690306,0.052631578947368474
107,687.7856579984241,0.10526315789473684
108,687.7856579984241,0.07894736842105265
109,687.7856579984241,0.05921052631578949
110,687.7856579984241,0.09210526315789469
111,687.7856579984241,0.08552631578947367
112,687.7856579984241,0.07236842105263153
113,687.7856579984241,0.125
114,687.7856579984241,0.06578947368421051
115,687.7856579984241,0.11184210526315785
116,687.7856579984241,0.09868421052631582
117,687.7856579984241,0.11842105263157898
118,690.5831363278171,0.23026315789473684
119,690.5831363278171,0.17763157894736847
120,690.5831363278171,0.1842105263157895
121,690.5831363278171,0.16447368421052633
122,690.5831363278171,0.1907894736842105
123,690.5831363278171,0.1578947368421053
124,690.5831363278171,0.125
125,690.5831363278171,0.15131578947368418
126,690.5831363278171,0.19736842105263153
127,690.5831363278171,0.13157894736842102
128,690.5831363278171,0.14473684210526316
129,690.5831363278171,0.20394736842105265
130,690.5831363278171,0.13815789473684215
131,690.5831363278171,0.21052631578947367
132,690.5831363278171,0.2171052631578947
133,690.5831363278171,0.22368421052631582
134,690.5831363278171,0.17105263157894735
135,693.3806146572106,0.3223684210526315
136,693.3806146572106,0.3486842105263158
137,693.3806146572106,0.3157894736842105
138,693.3806146572106,0.29605263157894735
139,693.3806146572106,0.3026315789473685
140,693.3806146572106,0.3421052631578947
141,693.3806146572106,0.32894736842105265
142,693.3806146572106,0.3355263157894737
143,693.3806146572106,0.3092105263157895
144,693.3806146572106,0.26973684210526316
145,693.3806146572106,0.23684210526315785
146,693.3806146572106,0.24342105263157898
147,693.3806146572106,0.25
148,693.3806146572106,0.256578947368421
149,693.3806146572106,0.26315789473684215
150,693.3806146572106,0.2763157894736842
151,693.3806146572106,0.2828947368421053
152,693.3806146572106,0.23026315789473684
153,693.3806146572106,0.2894736842105263
154,696.1780929866036,0.3223684210526315
155,696.1780929866036,0.2828947368421053
156,696.1780929866036,0.3421052631578947
157,696.1780929866036,0.32894736842105265
158,696.1780929866036,0.3026315789473685
159,696.1780929866036,0.3355263157894737
160,696.1780929866036,0.3157894736842105
161,696.1780929866036,0.3486842105263158
162,696.1780929866036,0.2894736842105263
163,696.1780929866036,0.3092105263157895
164,696.1780929866036,0.29605263157894735
165,698.9755713159971,0.256578947368421
166,698.9755713159971,0.19736842105263153
167,698.9755713159971,0.24342105263157898
168,698.9755713159971,0.1578947368421053
169,698.9755713159971,0.2171052631578947
170,698.9755713159971,0.25
171,698.9755713159971,0.13815789473684215
172,698.9755713159971,0.22368421052631582
173,698.9755713159971,0.13157894736842102
174,698.9755713159971,0.23684210526315785
175,698.9755713159971,0.14473684210526316
176,698.9755713159971,0.23026315789473684
177,698.9755713159971,0.15131578947368418
178,698.9755713159971,0.26973684210526316
179,698.9755713159971,0.1907894736842105
180,698.9755713159971,0.2763157894736842
181,698.9755713159971,0.1842105263157895
182,698.9755713159971,0.16447368421052633
183,698.9755713159971,0.17763157894736847
184,698.9755713159971,0.17105263157894735
185,698.9755713159971,0.20394736842105265
186,698.9755713159971,0.21052631578947367
187,698.9755713159971,0.2828947368421053
188,698.9755713159971,0.26315789473684215
189,701.7730496453901,0.13157894736842102
190,701.7730496453901,0.09868421052631582
191,701.7730496453901,0.08552631578947367
192,701.7730496453901,0.09210526315789469
193,701.7730496453901,0.10526315789473684
194,701.7730496453901,0.11184210526315785
195,701.7730496453901,0.125
196,701.7730496453901,0.11842105263157898
197,704.5705279747831,0.08552631578947367
198,704.5705279747831,0.06578947368421051
199,704.5705279747831,0.07894736842105265
200,704.5705279747831,0.05921052631578949
201,704.5705279747831,0.07236842105263153
202,707.3680063041766,0.05921052631578949
203,707.3680063041766,0.046052631578947345
204,707.3680063041766,0.052631578947368474
205,710.1654846335696,0.052631578947368474
206,710.1654846335696,0.046052631578947345
207,712.962962962963,0.05921052631578949
208,712.962962962963,0.052631578947368474
209,715.7604412923561,0.05921052631578949
210,715.7604412923561,0.06578947368421051
211,718.5579196217495,0.06578947368421051
212,718.5579196217495,0.05921052631578949
213,721.3553979511425,0.05921052631578949
214,721.3553979511425,0.046052631578947345
215,721.3553979511425,0.052631578947368474
216,724.152876280536,0.03947368421052633
217,724.152876280536,0.046052631578947345
218,726.950354609929,0.03947368421052633
219,729.7478329393225,0.03947368421052633
220,732.5453112687155,0.03947368421052633
221,732.5453112687155,0.046052631578947345
222,735.3427895981085,0.046052631578947345
223,735.3427895981085,0.052631578947368474
224,738.140267927502,0.07236842105263153
225,738.140267927502,0.052631578947368474
226,738.140267927502,0.05921052631578949
227,738.140267927502,0.06578947368421051
228,740.937746256895,0.07236842105263153
229,740.937746256895,0.07894736842105265
230,743.7352245862885,0.08552631578947367
231,743.7352245862885,0.07894736842105265
232,746.5327029156815,0.09210526315789469
233,746.5327029156815,0.08552631578947367
234,749.330181245075,0.09210526315789469
235,752.127659574468,0.09210526315789469
236,752.127659574468,0.09868421052631582
237,754.9251379038615,0.09868421052631582
238,754.9251379038615,0.09210526315789469
239,757.7226162332545,0.09210526315789469
240,760.520094562648,0.09210526315789469
241,760.520094562648,0.08552631578947367
242,763.317572892041,0.07894736842105265
243,763.317572892041,0.08552631578947367
244,763.317572892041,0.07236842105263153
245,766.115051221434,0.06578947368421051
246,766.115051221434,0.07236842105263153
247,768.9125295508275,0.05921052631578949
248,768.9125295508275,0.052631578947368474
249,768.9125295508275,0.06578947368421051
250,771.7100078802205,0.046052631578947345
251,771.7100078802205,0.052631578947368474
252,774.507486209614,0.046052631578947345
253,774.507486209614,0.03947368421052633
254,777.304964539007,0.03289473684210531
255,777.304964539007,0.03947368421052633
256,780.1024428684004,0.02631578947368418
257,780.1024428684004,0.03289473684210531
258,782.8999211977934,0.02631578947368418
259,785.6973995271869,0.02631578947368418
260,788.4948778565799,0.02631578947368418
261,788.4948778565799,0.019736842105263164
262,791.2923561859734,0.019736842105263164
263,794.0898345153664,0.019736842105263164
264,796.8873128447594,0.019736842105263164
265,799.6847911741529,0.019736842105263164
266,802.4822695035459,0.019736842105263164
267,805.2797478329394,0.019736842105263164
268,808.0772261623324,0.019736842105263164
269,810.8747044917259,0.019736842105263164
270,813.6721828211189,0.019736842105263164
271,816.4696611505124,0.019736842105263164
272,819.2671394799054,0.019736842105263164
273,822.0646178092989,0.019736842105263164
274,824.8620961386919,0.019736842105263164
275,827.6595744680849,0.019736842105263164
276,830.4570527974784,0.019736842105263164
277,833.2545311268714,0.019736842105263164
278,836.0520094562648,0.019736842105263164
279,838.8494877856579,0.019736842105263164
280,841.6469661150513,0.019736842105263164
281,844.4444444444443,0.019736842105263164
282,847.2419227738378,0.019736842105263164
283,850.0394011032308,0.019736842105263164
284,852.8368794326243,0.019736842105263164
285,855.6343577620173,0.019736842105263164
286,858.4318360914103,0.019736842105263164
287,861.2293144208038,0.019736842105263164
288,864.0267927501968,0.019736842105263164
289,866.8242710795903,0.019736842105263164
290,869.6217494089833,0.019736842105263164
291,872.4192277383768,0.019736842105263164
292,875.2167060677698,0.019736842105263164
293,878.0141843971633,0.019736842105263164
294,880.8116627265563,0.019736842105263164
295,883.6091410559497,0.019736842105263164
296,886.4066193853428,0.019736842105263164
297,889.2040977147362,0.019736842105263164
298,892.0015760441293,0.019736842105263164
299,894.7990543735223,0.019736842105263164
300,894.7990543735223,0.02631578947368418
301,897.5965327029157,0.02631578947368418
302,900.3940110323088,0.02631578947368418
303,900.3940110323088,0.03289473684210531
304,903.1914893617022,0.03289473684210531
305,905.9889676910952,0.03289473684210531
306,905.9889676910952,0.02631578947368418
307,908.7864460204887,0.02631578947368418
308,911.5839243498817,0.019736842105263164
309,911.5839243498817,0.02631578947368418
310,914.3814026792752,0.019736842105263164
311,917.1788810086682,0.019736842105263164
312,919.9763593380617,0.019736842105263164
313,922.7738376674547,0.019736842105263164
314,925.5713159968477,0.019736842105263164
315,928.3687943262412,0.019736842105263164
316,931.1662726556342,0.019736842105263164
317,933.9637509850277,0.019736842105263164
318,933.9637509850277,0.02631578947368418
319,936.7612293144207,0.02631578947368418
320,939.5587076438142,0.02631578947368418
321,942.3561859732072,0.02631578947368418
322,942.3561859732072,0.019736842105263164
323,945.1536643026006,0.019736842105263164
324,947.9511426319937,0.019736842105263164
325,950.7486209613871,0.019736842105263164
326,953.5460992907801,0.019736842105263164
327,953.5460992907801,0.02631578947368418
328,956.3435776201732,0.02631578947368418
329,959.1410559495666,0.02631578947368418
330,961.9385342789597,0.02631578947368418
331,964.7360126083531,0.02631578947368418
332,967.5334909377461,0.02631578947368418
333,970.3309692671396,0.02631578947368418
334,973.1284475965326,0.02631578947368418
335,975.9259259259261,0.02631578947368418
336,978.7234042553191,0.02631578947368418
337,981.5208825847126,0.02631578947368418
338,984.3183609141056,0.02631578947368418
339,987.1158392434986,0.02631578947368418
340,989.9133175728921,0.02631578947368418
341,992.7107959022851,0.02631578947368418
342,995.5082742316786,0.02631578947368418
343,998.3057525610716,0.02631578947368418
344,1001.103230890465,0.02631578947368418
345,1003.9007092198581,0.02631578947368418
346,1006.6981875492515,0.02631578947368418
347,1009.4956658786446,0.03289473684210531
348,1009.4956658786446,0.02631578947368418
349,1012.293144208038,0.03289473684210531
350,1015.090622537431,0.03289473684210531
351,1017.8881008668241,0.03289473684210531
352,1017.8881008668241,0.03947368421052633
353,1020.6855791962175,0.046052631578947345
354,1020.6855791962175,0.03947368421052633
355,1023.4830575256105,0.046052631578947345
356,1026.280535855004,0.046052631578947345
357,1029.078014184397,0.03289473684210531
358,1029.078014184397,0.046052631578947345
359,1029.078014184397,0.03947368421052633
360,1031.8754925137905,0.03289473684210531
361,1034.6729708431835,0.03289473684210531
362,1037.470449172577,0.03289473684210531
363,1037.470449172577,0.02631578947368418
364,1040.26792750197,0.02631578947368418
365,1040.26792750197,0.03289473684210531
366,1043.0654058313635,0.03289473684210531
367,1045.8628841607565,0.03289473684210531
368,1048.6603624901495,0.03289473684210531
369,1051.457840819543,0.03289473684210531
370,1054.255319148936,0.03289473684210531
371,1057.0527974783295,0.03289473684210531
372,1059.8502758077225,0.03289473684210531
373,1059.8502758077225,0.03947368421052633
374,1062.647754137116,0.03947368421052633
375,1065.445232466509,0.03947368421052633
376,1068.2427107959024,0.03289473684210531
377,1068.2427107959024,0.03947368421052633
378,1071.0401891252955,0.03289473684210531
379,1073.837667454689,0.03289473684210531
380,1076.635145784082,0.03289473684210531
381,1079.432624113475,0.03289473684210531
382,1082.2301024428684,0.02631578947368418
383,1082.2301024428684,0.03289473684210531
384,1085.0275807722614,0.02631578947368418
385,1087.825059101655,0.02631578947368418
386,1090.622537431048,0.02631578947368418
387,1093.4200157604414,0.02631578947368418
388,1096.2174940898344,0.02631578947368418
389,1099.014972419228,0.02631578947368418
390,1101.812450748621,0.02631578947368418
391,1104.6099290780144,0.02631578947368418
392,1104.6099290780144,0.03289473684210531
393,1107.4074074074074,0.03289473684210531
394,1110.2048857368004,0.03289473684210531
395,1113.0023640661939,0.03289473684210531
396,1115.799842395587,0.03289473684210531
397,1118.5973207249804,0.03289473684210531
398,1118.5973207249804,0.02631578947368418
399,1121.3947990543734,0.02631578947368418
400,1124.1922773837669,0.02631578947368418
401,1126.9897557131599,0.02631578947368418
402,1129.7872340425533,0.03289473684210531
403,1129.7872340425533,0.02631578947368418
404,1132.5847123719464,0.03289473684210531
405,1135.3821907013398,0.02631578947368418
406,1135.3821907013398,0.03289473684210531
407,1138.1796690307328,0.03289473684210531
408,1140.9771473601263,0.03289473684210531
409,1143.7746256895193,0.03289473684210531
410,1146.5721040189123,0.03289473684210531
411,1146.5721040189123,0.03947368421052633
412,1149.3695823483058,0.03947368421052633
413,1152.1670606776988,0.03947368421052633
414,1154.9645390070923,0.03289473684210531
415,1154.9645390070923,0.03947368421052633
416,1157.7620173364853,0.03289473684210531
417,1160.5594956658788,0.03289473684210531
418,1163.3569739952718,0.03289473684210531
419,1166.1544523246653,0.02631578947368418
420,1166.1544523246653,0.03289473684210531
421,1168.9519306540583,0.02631578947368418
422,1171.7494089834518,0.02631578947368418
423,1171.7494089834518,0.03289473684210531
424,1174.5468873128448,0.03289473684210531
425,1177.3443656422378,0.03289473684210531
426,1180.1418439716313,0.02631578947368418
427,1180.1418439716313,0.03289473684210531
428,1182.9393223010243,0.02631578947368418
429,1185.7368006304177,0.02631578947368418
430,1188.5342789598108,0.02631578947368418
431,1191.3317572892042,0.02631578947368418
432,1194.1292356185972,0.02631578947368418
433,1196.9267139479907,0.02631578947368418
434,1199.7241922773837,0.02631578947368418
435,1202.5216706067772,0.02631578947368418
436,1205.3191489361702,0.02631578947368418
437,1208.1166272655632,0.02631578947368418
438,1210.9141055949567,0.02631578947368418
439,1213.7115839243497,0.02631578947368418
440,1216.5090622537432,0.02631578947368418
441,1219.3065405831362,0.02631578947368418
442,1222.1040189125297,0.02631578947368418
443,1222.1040189125297,0.03289473684210531
444,1224.9014972419227,0.03289473684210531
445,1227.6989755713162,0.03289473684210531
446,1230.4964539007092,0.03289473684210531
447,1233.2939322301027,0.03289473684210531
448,1236.0914105594957,0.03289473684210531
449,1238.8888888888887,0.03289473684210531
450,1241.6863672182822,0.03289473684210531
451,1244.4838455476752,0.03289473684210531
452,1247.2813238770686,0.03289473684210531
453,1250.0788022064617,0.03289473684210531
454,1252.8762805358551,0.03289473684210531
455,1255.6737588652481,0.03289473684210531
456,1258.4712371946416,0.03289473684210531
457,1261.2687155240346,0.03289473684210531
458,1264.066193853428,0.03289473684210531
459,1266.8636721828211,0.03289473684210531
460,1269.6611505122141,0.03289473684210531
461,1272.4586288416076,0.03289473684210531
462,1275.2561071710006,0.03289473684210531
463,1278.053585500394,0.03289473684210531
464,1280.851063829787,0.03289473684210531
