,wavenumbers,absorbance
0,452.797478329393,0.013157894736842146
1,455.5949566587865,0.013157894736842146
2,458.3924349881795,0.013157894736842146
3,461.189913317573,0.013157894736842146
4,463.987391646966,0.013157894736842146
5,466.78486997635946,0.013157894736842146
6,466.78486997635946,0.019736842105263164
7,469.5823483057525,0.019736842105263164
8,472.37982663514595,0.019736842105263164
9,475.17730496453896,0.019736842105263164
10,477.97478329393243,0.019736842105263164
11,480.77226162332545,0.019736842105263164
12,483.56973995271846,0.019736842105263164
13,486.36721828211193,0.019736842105263164
14,489.16469661150495,0.019736842105263164
15,491.9621749408984,0.019736842105263164
16,494.75965327029144,0.019736842105263164
17,497.5571315996849,0.019736842105263164
18,500.3546099290779,0.019736842105263164
19,503.1520882584714,0.019736842105263164
20,505.9495665878644,0.019736842105263164
21,508.7470449172579,0.019736842105263164
22,511.5445232466509,0.019736842105263164
23,514.3420015760439,0.019736842105263164
24,514.3420015760439,0.02631578947368418
25,517.1394799054374,0.019736842105263164
26,519.9369582348304,0.019736842105263164
27,522.7344365642239,0.019736842105263164
28,525.5319148936169,0.019736842105263164
29,528.3293932230104,0.019736842105263164
30,531.1268715524034,0.019736842105263164
31,533.9243498817968,0.019736842105263164
32,536.7218282111899,0.019736842105263164
33,539.5193065405833,0.019736842105263164
34,539.5193065405833,0.02631578947368418
35,542.3167848699763,0.02631578947368418
36,545.1142631993694,0.02631578947368418
37,547.9117415287628,0.02631578947368418
38,550.7092198581558,0.02631578947368418
39,553.5066981875493,0.02631578947368418
40,556.3041765169423,0.02631578947368418
41,559.1016548463358,0.02631578947368418
42,561.8991331757288,0.02631578947368418
43,564.6966115051223,0.02631578947368418
44,567.4940898345153,0.02631578947368418
45,570.2915681639088,0.02631578947368418
46,573.0890464933018,0.02631578947368418
47,573.0890464933018,0.03289473684210531
48,575.8865248226948,0.02631578947368418
49,575.8865248226948,0.03289473684210531
50,578.6840031520883,0.02631578947368418
51,578.6840031520883,0.03289473684210531
52,581.4814814814813,0.03289473684210531
53,584.2789598108748,0.03289473684210531
54,587.0764381402678,0.03289473684210531
55,589.8739164696613,0.03289473684210531
56,592.6713947990543,0.03289473684210531
57,595.4688731284477,0.03289473684210531
58,598.2663514578408,0.03289473684210531
59,601.0638297872342,0.03289473684210531
60,603.8613081166272,0.03289473684210531
61,606.6587864460207,0.03289473684210531
62,606.6587864460207,0.02631578947368418
63,609.4562647754137,0.02631578947368418
64,612.2537431048067,0.02631578947368418
65,615.0512214342002,0.02631578947368418
66,617.8486997635932,0.02631578947368418
67,620.6461780929867,0.02631578947368418
68,620.6461780929867,0.03289473684210531
69,623.4436564223797,0.03289473684210531
70,626.2411347517732,0.03289473684210531
71,629.0386130811662,0.03289473684210531
72,631.8360914105597,0.03289473684210531
73,634.6335697399527,0.03289473684210531
74,637.4310480693462,0.03289473684210531
75,640.2285263987392,0.03289473684210531
76,643.0260047281322,0.02631578947368418
77,643.0260047281322,0.03289473684210531
78,645.8234830575257,0.02631578947368418
79,648.6209613869187,0.02631578947368418
80,651.4184397163122,0.02631578947368418
81,654.2159180457052,0.02631578947368418
82,657.0133963750986,0.02631578947368418
83,659.8108747044917,0.03289473684210531
84,659.8108747044917,0.02631578947368418
85,662.6083530338851,0.03289473684210531
86,665.4058313632781,0.03289473684210531
87,668.2033096926716,0.03289473684210531
88,668.2033096926716,0.03947368421052633
89,671.0007880220646,0.03947368421052633
90,671.0007880220646,0.046052631578947345
91,673.7982663514576,0.046052631578947345
92,676.5957446808511,0.046052631578947345
93,676.5957446808511,0.052631578947368474
94,679.3932230102441,0.05921052631578949
95,679.3932230102441,0.052631578947368474
96,682.1907013396376,0.06578947368421051
97,682.1907013396376,0.07236842105263153
98,682.1907013396376,0.05921052631578949
99,684.9881796690306,0.07236842105263153
100,684.9881796690306,0.07894736842105265
101,684.9881796690306,0.08552631578947367
102,687.7856579984241,0.09868421052631582
103,687.7856579984241,0.10526315789473684
104,687.7856579984241,0.11184210526315785
105,687.7856579984241,0.09210526315789469
106,687.7856579984241,0.08552631578947367
107,687.7856579984241,0.11842105263157898
108,690.5831363278171,0.125
109,690.5831363278171,0.11842105263157898
110,693.3806146572106,0.11842105263157898
111,693.3806146572106,0.125
112,693.3806146572106,0.11184210526315785
113,696.1780929866036,0.11184210526315785
114,696.1780929866036,0.09868421052631582
115,696.1780929866036,0.10526315789473684
116,698.9755713159971,0.09868421052631582
117,698.9755713159971,0.09210526315789469
118,701.7730496453901,0.09210526315789469
119,704.5705279747831,0.09210526315789469
120,707.3680063041766,0.10526315789473684
121,707.3680063041766,0.09210526315789469
122,707.3680063041766,0.09868421052631582
123,710.1654846335696,0.10526315789473684
124,712.962962962963,0.11842105263157898
125,712.962962962963,0.11184210526315785
126,712.962962962963,0.10526315789473684
127,715.7604412923561,0.125
128,715.7604412923561,0.11842105263157898
129,718.5579196217495,0.125
130,721.3553979511425,0.125
131,724.152876280536,0.11842105263157898
132,724.152876280536,0.11184210526315785
133,724.152876280536,0.125
134,726.950354609929,0.10526315789473684
135,726.950354609929,0.11184210526315785
136,729.7478329393225,0.09868421052631582
137,729.7478329393225,0.10526315789473684
138,732.5453112687155,0.09868421052631582
139,732.5453112687155,0.08552631578947367
140,732.5453112687155,0.09210526315789469
141,735.3427895981085,0.07894736842105265
142,735.3427895981085,0.08552631578947367
143,738.140267927502,0.07894736842105265
144,738.140267927502,0.07236842105263153
145,740.937746256895,0.07236842105263153
146,743.7352245862885,0.07236842105263153
147,746.5327029156815,0.06578947368421051
148,746.5327029156815,0.07236842105263153
149,749.330181245075,0.06578947368421051
150,752.127659574468,0.07236842105263153
151,752.127659574468,0.06578947368421051
152,754.9251379038615,0.07236842105263153
153,757.7226162332545,0.07236842105263153
154,760.520094562648,0.07236842105263153
155,763.317572892041,0.07236842105263153
156,763.317572892041,0.07894736842105265
157,766.115051221434,0.07894736842105265
158,766.115051221434,0.08552631578947367
159,768.9125295508275,0.08552631578947367
160,768.9125295508275,0.09210526315789469
161,771.7100078802205,0.09210526315789469
162,774.507486209614,0.08552631578947367
163,774.507486209614,0.09210526315789469
164,777.304964539007,0.08552631578947367
165,780.1024428684004,0.07894736842105265
166,780.1024428684004,0.08552631578947367
167,780.1024428684004,0.06578947368421051
168,780.1024428684004,0.07236842105263153
169,782.8999211977934,0.05921052631578949
170,782.8999211977934,0.06578947368421051
171,785.6973995271869,0.052631578947368474
172,785.6973995271869,0.05921052631578949
173,788.4948778565799,0.052631578947368474
174,788.4948778565799,0.046052631578947345
175,791.2923561859734,0.046052631578947345
176,794.0898345153664,0.03947368421052633
177,794.0898345153664,0.046052631578947345
178,796.8873128447594,0.03947368421052633
179,799.6847911741529,0.046052631578947345
180,799.6847911741529,0.03947368421052633
181,802.4822695035459,0.046052631578947345
182,805.2797478329394,0.052631578947368474
183,805.2797478329394,0.046052631578947345
184,808.0772261623324,0.052631578947368474
185,810.8747044917259,0.046052631578947345
186,810.8747044917259,0.052631578947368474
187,813.6721828211189,0.046052631578947345
188,816.4696611505124,0.046052631578947345
189,819.2671394799054,0.046052631578947345
190,822.0646178092989,0.046052631578947345
191,824.8620961386919,0.046052631578947345
192,824.8620961386919,0.052631578947368474
193,827.6595744680849,0.052631578947368474
194,830.4570527974784,0.052631578947368474
195,830.4570527974784,0.05921052631578949
196,830.4570527974784,0.06578947368421051
197,833.2545311268714,0.06578947368421051
198,833.2545311268714,0.07236842105263153
199,836.0520094562648,0.07236842105263153
200,836.0520094562648,0.07894736842105265
201,836.0520094562648,0.09210526315789469
202,836.0520094562648,0.08552631578947367
203,838.8494877856579,0.09868421052631582
204,838.8494877856579,0.09210526315789469
205,841.6469661150513,0.10526315789473684
206,841.6469661150513,0.09868421052631582
207,841.6469661150513,0.11184210526315785
208,844.4444444444443,0.11184210526315785
209,847.2419227738378,0.10526315789473684
210,847.2419227738378,0.11184210526315785
211,850.0394011032308,0.10526315789473684
212,852.8368794326243,0.10526315789473684
213,855.6343577620173,0.10526315789473684
214,855.6343577620173,0.11184210526315785
215,858.4318360914103,0.11184210526315785
216,858.4318360914103,0.10526315789473684
217,858.4318360914103,0.09868421052631582
218,861.2293144208038,0.09868421052631582
219,861.2293144208038,0.09210526315789469
220,861.2293144208038,0.08552631578947367
221,864.0267927501968,0.07894736842105265
222,864.0267927501968,0.08552631578947367
223,866.8242710795903,0.07236842105263153
224,866.8242710795903,0.06578947368421051
225,866.8242710795903,0.07894736842105265
226,869.6217494089833,0.06578947368421051
227,872.4192277383768,0.06578947368421051
228,875.2167060677698,0.05921052631578949
229,875.2167060677698,0.06578947368421051
230,878.0141843971633,0.052631578947368474
231,878.0141843971633,0.05921052631578949
232,880.8116627265563,0.052631578947368474
233,883.6091410559497,0.052631578947368474
234,886.4066193853428,0.052631578947368474
235,886.4066193853428,0.05921052631578949
236,889.2040977147362,0.05921052631578949
237,892.0015760441293,0.05921052631578949
238,892.0015760441293,0.07236842105263153
239,892.0015760441293,0.06578947368421051
240,894.7990543735223,0.07236842105263153
241,894.7990543735223,0.07894736842105265
242,897.5965327029157,0.10526315789473684
243,897.5965327029157,0.07894736842105265
244,897.5965327029157,0.09868421052631582
245,897.5965327029157,0.11184210526315785
246,897.5965327029157,0.08552631578947367
247,897.5965327029157,0.09210526315789469
248,900.3940110323088,0.125
249,900.3940110323088,0.11184210526315785
250,900.3940110323088,0.13157894736842102
251,900.3940110323088,0.11842105263157898
252,903.1914893617022,0.14473684210526316
253,903.1914893617022,0.13815789473684215
254,903.1914893617022,0.13157894736842102
255,903.1914893617022,0.15131578947368418
256,905.9889676910952,0.15131578947368418
257,905.9889676910952,0.16447368421052633
258,905.9889676910952,0.17105263157894735
259,905.9889676910952,0.1578947368421053
260,908.7864460204887,0.17105263157894735
261,911.5839243498817,0.13815789473684215
262,911.5839243498817,0.17105263157894735
263,911.5839243498817,0.1578947368421053
264,911.5839243498817,0.16447368421052633
265,911.5839243498817,0.15131578947368418
266,911.5839243498817,0.14473684210526316
267,914.3814026792752,0.11842105263157898
268,914.3814026792752,0.125
269,914.3814026792752,0.13157894736842102
270,914.3814026792752,0.13815789473684215
271,917.1788810086682,0.11184210526315785
272,917.1788810086682,0.11842105263157898
273,917.1788810086682,0.08552631578947367
274,917.1788810086682,0.09868421052631582
275,917.1788810086682,0.09210526315789469
276,917.1788810086682,0.10526315789473684
277,919.9763593380617,0.07894736842105265
278,919.9763593380617,0.08552631578947367
279,922.7738376674547,0.06578947368421051
280,922.7738376674547,0.07236842105263153
281,922.7738376674547,0.07894736842105265
282,925.5713159968477,0.06578947368421051
283,928.3687943262412,0.05921052631578949
284,928.3687943262412,0.06578947368421051
285,931.1662726556342,0.05921052631578949
286,933.9637509850277,0.05921052631578949
287,936.7612293144207,0.05921052631578949
288,939.5587076438142,0.05921052631578949
289,942.3561859732072,0.05921052631578949
290,945.1536643026006,0.05921052631578949
291,947.9511426319937,0.05921052631578949
292,950.7486209613871,0.05921052631578949
293,953.5460992907801,0.05921052631578949
294,956.3435776201732,0.05921052631578949
295,959.1410559495666,0.06578947368421051
296,959.1410559495666,0.05921052631578949
297,961.9385342789597,0.06578947368421051
298,964.7360126083531,0.06578947368421051
299,967.5334909377461,0.06578947368421051
300,970.3309692671396,0.06578947368421051
301,973.1284475965326,0.06578947368421051
302,973.1284475965326,0.07236842105263153
303,975.9259259259261,0.07236842105263153
304,978.7234042553191,0.08552631578947367
305,978.7234042553191,0.07236842105263153
306,978.7234042553191,0.07894736842105265
307,981.5208825847126,0.09210526315789469
308,981.5208825847126,0.08552631578947367
309,984.3183609141056,0.09210526315789469
310,984.3183609141056,0.09868421052631582
311,987.1158392434986,0.09868421052631582
312,987.1158392434986,0.11184210526315785
313,987.1158392434986,0.10526315789473684
314,989.9133175728921,0.11184210526315785
315,992.7107959022851,0.11184210526315785
316,992.7107959022851,0.10526315789473684
317,995.5082742316786,0.10526315789473684
318,995.5082742316786,0.09868421052631582
319,998.3057525610716,0.09210526315789469
320,998.3057525610716,0.09868421052631582
321,998.3057525610716,0.08552631578947367
322,1001.103230890465,0.08552631578947367
323,1003.9007092198581,0.08552631578947367
324,1006.6981875492515,0.08552631578947367
325,1009.4956658786446,0.08552631578947367
326,1009.4956658786446,0.09210526315789469
327,1012.293144208038,0.09868421052631582
328,1012.293144208038,0.09210526315789469
329,1015.090622537431,0.09868421052631582
330,1017.8881008668241,0.11184210526315785
331,1017.8881008668241,0.10526315789473684
332,1017.8881008668241,0.09868421052631582
333,1020.6855791962175,0.11184210526315785
334,1020.6855791962175,0.11842105263157898
335,1023.4830575256105,0.11842105263157898
336,1023.4830575256105,0.125
337,1023.4830575256105,0.13157894736842102
338,1026.280535855004,0.13157894736842102
339,1026.280535855004,0.13815789473684215
340,1029.078014184397,0.13815789473684215
341,1029.078014184397,0.14473684210526316
342,1029.078014184397,0.16447368421052633
343,1029.078014184397,0.1578947368421053
344,1029.078014184397,0.15131578947368418
345,1031.8754925137905,0.17763157894736847
346,1031.8754925137905,0.16447368421052633
347,1031.8754925137905,0.17105263157894735
348,1034.6729708431835,0.1907894736842105
349,1034.6729708431835,0.19736842105263153
350,1034.6729708431835,0.20394736842105265
351,1034.6729708431835,0.1842105263157895
352,1034.6729708431835,0.17763157894736847
353,1037.470449172577,0.20394736842105265
354,1037.470449172577,0.21052631578947367
355,1037.470449172577,0.2171052631578947
356,1040.26792750197,0.2171052631578947
357,1043.0654058313635,0.20394736842105265
358,1043.0654058313635,0.21052631578947367
359,1043.0654058313635,0.2171052631578947
360,1045.8628841607565,0.20394736842105265
361,1045.8628841607565,0.19736842105263153
362,1045.8628841607565,0.1907894736842105
363,1048.6603624901495,0.16447368421052633
364,1048.6603624901495,0.17105263157894735
365,1048.6603624901495,0.17763157894736847
366,1048.6603624901495,0.1842105263157895
367,1048.6603624901495,0.1907894736842105
368,1051.457840819543,0.1578947368421053
369,1051.457840819543,0.16447368421052633
370,1054.255319148936,0.15131578947368418
371,1054.255319148936,0.14473684210526316
372,1054.255319148936,0.1578947368421053
373,1054.255319148936,0.13815789473684215
374,1057.0527974783295,0.13157894736842102
375,1057.0527974783295,0.13815789473684215
376,1059.8502758077225,0.13157894736842102
377,1062.647754137116,0.13157894736842102
378,1062.647754137116,0.13815789473684215
379,1065.445232466509,0.13815789473684215
380,1065.445232466509,0.14473684210526316
381,1065.445232466509,0.15131578947368418
382,1068.2427107959024,0.16447368421052633
383,1068.2427107959024,0.1578947368421053
384,1068.2427107959024,0.15131578947368418
385,1071.0401891252955,0.16447368421052633
386,1071.0401891252955,0.17105263157894735
387,1073.837667454689,0.17105263157894735
388,1073.837667454689,0.17763157894736847
389,1076.635145784082,0.17763157894736847
390,1079.432624113475,0.17763157894736847
391,1082.2301024428684,0.17763157894736847
392,1085.0275807722614,0.17105263157894735
393,1085.0275807722614,0.17763157894736847
394,1087.825059101655,0.16447368421052633
395,1087.825059101655,0.17105263157894735
396,1090.622537431048,0.15131578947368418
397,1090.622537431048,0.1578947368421053
398,1090.622537431048,0.16447368421052633
399,1093.4200157604414,0.15131578947368418
400,1096.2174940898344,0.15131578947368418
401,1096.2174940898344,0.14473684210526316
402,1099.014972419228,0.14473684210526316
403,1101.812450748621,0.14473684210526316
404,1104.6099290780144,0.14473684210526316
405,1104.6099290780144,0.15131578947368418
406,1107.4074074074074,0.15131578947368418
407,1110.2048857368004,0.15131578947368418
408,1113.0023640661939,0.15131578947368418
409,1115.799842395587,0.15131578947368418
410,1115.799842395587,0.13815789473684215
411,1115.799842395587,0.14473684210526316
412,1118.5973207249804,0.13157894736842102
413,1118.5973207249804,0.13815789473684215
414,1121.3947990543734,0.125
415,1121.3947990543734,0.13157894736842102
416,1124.1922773837669,0.125
417,1126.9897557131599,0.125
418,1126.9897557131599,0.11842105263157898
419,1129.7872340425533,0.09868421052631582
420,1129.7872340425533,0.11842105263157898
421,1129.7872340425533,0.11184210526315785
422,1129.7872340425533,0.10526315789473684
423,1132.5847123719464,0.09210526315789469
424,1132.5847123719464,0.09868421052631582
425,1135.3821907013398,0.08552631578947367
426,1135.3821907013398,0.09210526315789469
427,1135.3821907013398,0.07894736842105265
428,1138.1796690307328,0.07894736842105265
429,1138.1796690307328,0.07236842105263153
430,1140.9771473601263,0.07236842105263153
431,1140.9771473601263,0.08552631578947367
432,1140.9771473601263,0.07894736842105265
433,1143.7746256895193,0.09868421052631582
434,1143.7746256895193,0.08552631578947367
435,1143.7746256895193,0.09210526315789469
436,1146.5721040189123,0.13157894736842102
437,1146.5721040189123,0.09868421052631582
438,1146.5721040189123,0.11184210526315785
439,1146.5721040189123,0.125
440,1146.5721040189123,0.10526315789473684
441,1146.5721040189123,0.11842105263157898
442,1149.3695823483058,0.13157894736842102
443,1149.3695823483058,0.14473684210526316
444,1149.3695823483058,0.13815789473684215
445,1152.1670606776988,0.1578947368421053
446,1152.1670606776988,0.15131578947368418
447,1152.1670606776988,0.14473684210526316
448,1154.9645390070923,0.1578947368421053
449,1157.7620173364853,0.15131578947368418
450,1157.7620173364853,0.1578947368421053
451,1160.5594956658788,0.13157894736842102
452,1160.5594956658788,0.14473684210526316
453,1160.5594956658788,0.125
454,1160.5594956658788,0.15131578947368418
455,1160.5594956658788,0.13815789473684215
456,1163.3569739952718,0.125
457,1163.3569739952718,0.11842105263157898
458,1166.1544523246653,0.11184210526315785
459,1166.1544523246653,0.11842105263157898
460,1168.9519306540583,0.11184210526315785
461,1168.9519306540583,0.10526315789473684
462,1171.7494089834518,0.10526315789473684
463,1171.7494089834518,0.09210526315789469
464,1171.7494089834518,0.09868421052631582
465,1174.5468873128448,0.09210526315789469
466,1177.3443656422378,0.09210526315789469
467,1180.1418439716313,0.09210526315789469
