,wavenumbers,absorbance
0,452.797478329393,0.019736842105263164
1,452.797478329393,0.02631578947368418
2,455.5949566587865,0.019736842105263164
3,458.3924349881795,0.019736842105263164
4,458.3924349881795,0.02631578947368418
5,461.189913317573,0.02631578947368418
6,463.987391646966,0.02631578947368418
7,463.987391646966,0.019736842105263164
8,466.78486997635946,0.019736842105263164
9,469.5823483057525,0.019736842105263164
10,472.37982663514595,0.02631578947368418
11,472.37982663514595,0.019736842105263164
12,475.17730496453896,0.02631578947368418
13,477.97478329393243,0.02631578947368418
14,480.77226162332545,0.02631578947368418
15,483.56973995271846,0.02631578947368418
16,486.36721828211193,0.02631578947368418
17,489.16469661150495,0.02631578947368418
18,491.9621749408984,0.02631578947368418
19,494.75965327029144,0.02631578947368418
20,497.5571315996849,0.02631578947368418
21,500.3546099290779,0.02631578947368418
22,503.1520882584714,0.02631578947368418
23,505.9495665878644,0.02631578947368418
24,508.7470449172579,0.02631578947368418
25,511.5445232466509,0.02631578947368418
26,514.3420015760439,0.02631578947368418
27,517.1394799054374,0.02631578947368418
28,519.9369582348304,0.02631578947368418
29,522.7344365642239,0.02631578947368418
30,525.5319148936169,0.03289473684210531
31,525.5319148936169,0.02631578947368418
32,528.3293932230104,0.03289473684210531
33,531.1268715524034,0.03289473684210531
34,533.9243498817968,0.03289473684210531
35,533.9243498817968,0.02631578947368418
36,536.7218282111899,0.02631578947368418
37,539.5193065405833,0.02631578947368418
38,542.3167848699763,0.02631578947368418
39,545.1142631993694,0.02631578947368418
40,547.9117415287628,0.02631578947368418
41,550.7092198581558,0.02631578947368418
42,553.5066981875493,0.02631578947368418
43,556.3041765169423,0.02631578947368418
44,559.1016548463358,0.02631578947368418
45,561.8991331757288,0.02631578947368418
46,564.6966115051223,0.02631578947368418
47,564.6966115051223,0.019736842105263164
48,567.4940898345153,0.019736842105263164
49,570.2915681639088,0.019736842105263164
50,573.0890464933018,0.019736842105263164
51,575.8865248226948,0.019736842105263164
52,578.6840031520883,0.019736842105263164
53,581.4814814814813,0.019736842105263164
54,584.2789598108748,0.019736842105263164
55,584.2789598108748,0.02631578947368418
56,587.0764381402678,0.02631578947368418
57,587.0764381402678,0.019736842105263164
58,589.8739164696613,0.02631578947368418
59,589.8739164696613,0.019736842105263164
60,592.6713947990543,0.02631578947368418
61,595.4688731284477,0.02631578947368418
62,598.2663514578408,0.019736842105263164
63,598.2663514578408,0.02631578947368418
64,601.0638297872342,0.02631578947368418
65,601.0638297872342,0.019736842105263164
66,603.8613081166272,0.02631578947368418
67,606.6587864460207,0.02631578947368418
68,609.4562647754137,0.02631578947368418
69,612.2537431048067,0.02631578947368418
70,615.0512214342002,0.02631578947368418
71,617.8486997635932,0.02631578947368418
72,620.6461780929867,0.02631578947368418
73,623.4436564223797,0.02631578947368418
74,626.2411347517732,0.019736842105263164
75,626.2411347517732,0.02631578947368418
76,629.0386130811662,0.02631578947368418
77,629.0386130811662,0.019736842105263164
78,631.8360914105597,0.019736842105263164
79,634.6335697399527,0.019736842105263164
80,637.4310480693462,0.019736842105263164
81,640.2285263987392,0.019736842105263164
82,643.0260047281322,0.019736842105263164
83,645.8234830575257,0.019736842105263164
84,648.6209613869187,0.019736842105263164
85,651.4184397163122,0.019736842105263164
86,654.2159180457052,0.019736842105263164
87,654.2159180457052,0.02631578947368418
88,657.0133963750986,0.02631578947368418
89,659.8108747044917,0.02631578947368418
90,662.6083530338851,0.02631578947368418
91,665.4058313632781,0.02631578947368418
92,668.2033096926716,0.02631578947368418
93,671.0007880220646,0.02631578947368418
94,673.7982663514576,0.019736842105263164
95,673.7982663514576,0.02631578947368418
96,676.5957446808511,0.019736842105263164
97,679.3932230102441,0.019736842105263164
98,682.1907013396376,0.019736842105263164
99,684.9881796690306,0.019736842105263164
100,687.7856579984241,0.019736842105263164
101,690.5831363278171,0.019736842105263164
102,693.3806146572106,0.019736842105263164
103,693.3806146572106,0.02631578947368418
104,696.1780929866036,0.02631578947368418
105,698.9755713159971,0.019736842105263164
106,698.9755713159971,0.02631578947368418
107,701.7730496453901,0.019736842105263164
108,701.7730496453901,0.02631578947368418
109,704.5705279747831,0.019736842105263164
110,704.5705279747831,0.02631578947368418
111,707.3680063041766,0.019736842105263164
112,710.1654846335696,0.019736842105263164
113,712.962962962963,0.019736842105263164
114,715.7604412923561,0.019736842105263164
115,718.5579196217495,0.019736842105263164
116,721.3553979511425,0.019736842105263164
117,724.152876280536,0.02631578947368418
118,724.152876280536,0.019736842105263164
119,726.950354609929,0.02631578947368418
120,729.7478329393225,0.02631578947368418
121,729.7478329393225,0.03289473684210531
122,732.5453112687155,0.03289473684210531
123,732.5453112687155,0.03947368421052633
124,735.3427895981085,0.03947368421052633
125,738.140267927502,0.03289473684210531
126,738.140267927502,0.03947368421052633
127,740.937746256895,0.03289473684210531
128,743.7352245862885,0.03947368421052633
129,743.7352245862885,0.03289473684210531
130,746.5327029156815,0.03289473684210531
131,749.330181245075,0.03289473684210531
132,752.127659574468,0.03289473684210531
133,754.9251379038615,0.03289473684210531
134,757.7226162332545,0.03289473684210531
135,760.520094562648,0.03289473684210531
136,763.317572892041,0.03289473684210531
137,766.115051221434,0.03289473684210531
138,766.115051221434,0.03947368421052633
139,768.9125295508275,0.046052631578947345
140,768.9125295508275,0.03947368421052633
141,771.7100078802205,0.046052631578947345
142,771.7100078802205,0.052631578947368474
143,774.507486209614,0.052631578947368474
144,774.507486209614,0.06578947368421051
145,774.507486209614,0.05921052631578949
146,774.507486209614,0.07236842105263153
147,777.304964539007,0.07894736842105265
148,777.304964539007,0.07236842105263153
149,780.1024428684004,0.07236842105263153
150,780.1024428684004,0.07894736842105265
151,782.8999211977934,0.07236842105263153
152,782.8999211977934,0.06578947368421051
153,785.6973995271869,0.06578947368421051
154,785.6973995271869,0.05921052631578949
155,788.4948778565799,0.052631578947368474
156,788.4948778565799,0.046052631578947345
157,788.4948778565799,0.05921052631578949
158,791.2923561859734,0.052631578947368474
159,791.2923561859734,0.046052631578947345
160,794.0898345153664,0.05921052631578949
161,794.0898345153664,0.046052631578947345
162,794.0898345153664,0.052631578947368474
163,796.8873128447594,0.06578947368421051
164,796.8873128447594,0.07236842105263153
165,796.8873128447594,0.05921052631578949
166,799.6847911741529,0.07894736842105265
167,799.6847911741529,0.09868421052631582
168,799.6847911741529,0.11842105263157898
169,799.6847911741529,0.13157894736842102
170,799.6847911741529,0.13815789473684215
171,799.6847911741529,0.10526315789473684
172,799.6847911741529,0.09210526315789469
173,799.6847911741529,0.08552631578947367
174,799.6847911741529,0.11184210526315785
175,799.6847911741529,0.14473684210526316
176,799.6847911741529,0.125
177,799.6847911741529,0.07236842105263153
178,802.4822695035459,0.14473684210526316
179,802.4822695035459,0.17105263157894735
180,802.4822695035459,0.16447368421052633
181,802.4822695035459,0.2171052631578947
182,802.4822695035459,0.17763157894736847
183,802.4822695035459,0.1842105263157895
184,802.4822695035459,0.1578947368421053
185,802.4822695035459,0.23026315789473684
186,802.4822695035459,0.19736842105263153
187,802.4822695035459,0.15131578947368418
188,802.4822695035459,0.20394736842105265
189,802.4822695035459,0.1907894736842105
190,802.4822695035459,0.21052631578947367
191,802.4822695035459,0.22368421052631582
192,805.2797478329394,0.25
193,805.2797478329394,0.2171052631578947
194,805.2797478329394,0.22368421052631582
195,805.2797478329394,0.256578947368421
196,805.2797478329394,0.24342105263157898
197,805.2797478329394,0.23684210526315785
198,805.2797478329394,0.23026315789473684
199,808.0772261623324,0.2171052631578947
200,808.0772261623324,0.21052631578947367
201,808.0772261623324,0.1842105263157895
202,808.0772261623324,0.23684210526315785
203,808.0772261623324,0.23026315789473684
204,808.0772261623324,0.1907894736842105
205,808.0772261623324,0.19736842105263153
206,808.0772261623324,0.20394736842105265
207,808.0772261623324,0.22368421052631582
208,810.8747044917259,0.1842105263157895
209,810.8747044917259,0.17763157894736847
210,810.8747044917259,0.08552631578947367
211,810.8747044917259,0.1578947368421053
212,810.8747044917259,0.125
213,810.8747044917259,0.14473684210526316
214,810.8747044917259,0.15131578947368418
215,810.8747044917259,0.13157894736842102
216,810.8747044917259,0.13815789473684215
217,810.8747044917259,0.09210526315789469
218,810.8747044917259,0.11184210526315785
219,810.8747044917259,0.10526315789473684
220,810.8747044917259,0.17105263157894735
221,810.8747044917259,0.09868421052631582
222,810.8747044917259,0.07894736842105265
223,810.8747044917259,0.16447368421052633
224,810.8747044917259,0.11842105263157898
225,813.6721828211189,0.07894736842105265
226,813.6721828211189,0.07236842105263153
227,813.6721828211189,0.06578947368421051
228,813.6721828211189,0.05921052631578949
229,816.4696611505124,0.05921052631578949
230,816.4696611505124,0.046052631578947345
231,816.4696611505124,0.052631578947368474
232,819.2671394799054,0.03289473684210531
233,819.2671394799054,0.03947368421052633
234,819.2671394799054,0.046052631578947345
235,822.0646178092989,0.03289473684210531
236,824.8620961386919,0.03289473684210531
237,827.6595744680849,0.03289473684210531
238,830.4570527974784,0.03289473684210531
239,830.4570527974784,0.03947368421052633
240,833.2545311268714,0.03947368421052633
241,836.0520094562648,0.03947368421052633
242,838.8494877856579,0.03947368421052633
243,841.6469661150513,0.03947368421052633
244,844.4444444444443,0.03947368421052633
245,847.2419227738378,0.03947368421052633
246,850.0394011032308,0.03947368421052633
247,852.8368794326243,0.03947368421052633
248,852.8368794326243,0.03289473684210531
249,855.6343577620173,0.03289473684210531
250,855.6343577620173,0.03947368421052633
251,858.4318360914103,0.03947368421052633
252,861.2293144208038,0.03947368421052633
253,864.0267927501968,0.03947368421052633
254,866.8242710795903,0.03947368421052633
255,869.6217494089833,0.046052631578947345
256,869.6217494089833,0.03947368421052633
257,872.4192277383768,0.046052631578947345
258,875.2167060677698,0.046052631578947345
259,878.0141843971633,0.046052631578947345
260,880.8116627265563,0.046052631578947345
261,883.6091410559497,0.046052631578947345
262,886.4066193853428,0.046052631578947345
263,886.4066193853428,0.052631578947368474
264,889.2040977147362,0.052631578947368474
265,892.0015760441293,0.052631578947368474
266,892.0015760441293,0.05921052631578949
267,894.7990543735223,0.05921052631578949
268,897.5965327029157,0.05921052631578949
269,900.3940110323088,0.05921052631578949
270,903.1914893617022,0.05921052631578949
271,905.9889676910952,0.05921052631578949
272,908.7864460204887,0.05921052631578949
273,911.5839243498817,0.052631578947368474
274,911.5839243498817,0.05921052631578949
275,914.3814026792752,0.052631578947368474
276,917.1788810086682,0.052631578947368474
277,919.9763593380617,0.052631578947368474
278,922.7738376674547,0.052631578947368474
279,925.5713159968477,0.052631578947368474
280,928.3687943262412,0.052631578947368474
281,931.1662726556342,0.052631578947368474
282,933.9637509850277,0.052631578947368474
283,936.7612293144207,0.052631578947368474
284,939.5587076438142,0.052631578947368474
285,939.5587076438142,0.05921052631578949
286,942.3561859732072,0.06578947368421051
287,942.3561859732072,0.05921052631578949
288,945.1536643026006,0.07236842105263153
289,945.1536643026006,0.06578947368421051
290,947.9511426319937,0.07894736842105265
291,947.9511426319937,0.08552631578947367
292,947.9511426319937,0.07236842105263153
293,950.7486209613871,0.09210526315789469
294,950.7486209613871,0.08552631578947367
295,950.7486209613871,0.09868421052631582
296,953.5460992907801,0.11184210526315785
297,953.5460992907801,0.11842105263157898
298,953.5460992907801,0.09868421052631582
299,953.5460992907801,0.125
300,953.5460992907801,0.10526315789473684
301,956.3435776201732,0.13157894736842102
302,956.3435776201732,0.14473684210526316
303,956.3435776201732,0.125
304,956.3435776201732,0.13815789473684215
305,959.1410559495666,0.15131578947368418
306,959.1410559495666,0.14473684210526316
307,959.1410559495666,0.1578947368421053
308,961.9385342789597,0.17763157894736847
309,961.9385342789597,0.1578947368421053
310,961.9385342789597,0.16447368421052633
311,961.9385342789597,0.17105263157894735
312,964.7360126083531,0.1842105263157895
313,964.7360126083531,0.17763157894736847
314,967.5334909377461,0.1907894736842105
315,967.5334909377461,0.1842105263157895
316,970.3309692671396,0.1907894736842105
317,970.3309692671396,0.19736842105263153
318,973.1284475965326,0.22368421052631582
319,973.1284475965326,0.20394736842105265
320,973.1284475965326,0.21052631578947367
321,973.1284475965326,0.19736842105263153
322,973.1284475965326,0.2171052631578947
323,975.9259259259261,0.24342105263157898
324,975.9259259259261,0.22368421052631582
325,975.9259259259261,0.23684210526315785
326,975.9259259259261,0.25
327,975.9259259259261,0.23026315789473684
328,978.7234042553191,0.2828947368421053
329,978.7234042553191,0.256578947368421
330,978.7234042553191,0.25
331,978.7234042553191,0.2894736842105263
332,978.7234042553191,0.26315789473684215
333,978.7234042553191,0.2763157894736842
334,978.7234042553191,0.26973684210526316
335,981.5208825847126,0.2894736842105263
336,984.3183609141056,0.2894736842105263
337,987.1158392434986,0.26973684210526316
338,987.1158392434986,0.2894736842105263
339,987.1158392434986,0.2828947368421053
340,987.1158392434986,0.2763157894736842
341,987.1158392434986,0.26315789473684215
342,989.9133175728921,0.25
343,989.9133175728921,0.26315789473684215
344,989.9133175728921,0.256578947368421
345,992.7107959022851,0.24342105263157898
346,992.7107959022851,0.23684210526315785
347,992.7107959022851,0.25
348,992.7107959022851,0.23026315789473684
349,995.5082742316786,0.22368421052631582
350,995.5082742316786,0.23026315789473684
351,998.3057525610716,0.21052631578947367
352,998.3057525610716,0.2171052631578947
353,998.3057525610716,0.22368421052631582
354,1001.103230890465,0.20394736842105265
355,1001.103230890465,0.21052631578947367
356,1003.9007092198581,0.19736842105263153
357,1003.9007092198581,0.20394736842105265
358,1006.6981875492515,0.19736842105263153
359,1009.4956658786446,0.1842105263157895
360,1009.4956658786446,0.1907894736842105
361,1009.4956658786446,0.19736842105263153
362,1012.293144208038,0.1842105263157895
363,1012.293144208038,0.17763157894736847
364,1015.090622537431,0.17105263157894735
365,1015.090622537431,0.17763157894736847
366,1017.8881008668241,0.16447368421052633
367,1017.8881008668241,0.1578947368421053
368,1017.8881008668241,0.17105263157894735
369,1020.6855791962175,0.1578947368421053
370,1023.4830575256105,0.1578947368421053
371,1023.4830575256105,0.15131578947368418
372,1026.280535855004,0.1578947368421053
373,1026.280535855004,0.15131578947368418
374,1029.078014184397,0.1578947368421053
375,1029.078014184397,0.17105263157894735
376,1029.078014184397,0.16447368421052633
377,1031.8754925137905,0.17763157894736847
378,1031.8754925137905,0.17105263157894735
379,1034.6729708431835,0.20394736842105265
380,1034.6729708431835,0.17763157894736847
381,1034.6729708431835,0.1842105263157895
382,1034.6729708431835,0.19736842105263153
383,1034.6729708431835,0.1907894736842105
384,1037.470449172577,0.20394736842105265
385,1037.470449172577,0.2171052631578947
386,1037.470449172577,0.21052631578947367
387,1037.470449172577,0.22368421052631582
388,1040.26792750197,0.23684210526315785
389,1040.26792750197,0.24342105263157898
390,1040.26792750197,0.256578947368421
391,1040.26792750197,0.22368421052631582
392,1040.26792750197,0.23026315789473684
393,1040.26792750197,0.25
394,1043.0654058313635,0.26315789473684215
395,1043.0654058313635,0.256578947368421
396,1043.0654058313635,0.26973684210526316
397,1043.0654058313635,0.2763157894736842
398,1045.8628841607565,0.2828947368421053
399,1045.8628841607565,0.2894736842105263
400,1045.8628841607565,0.2763157894736842
401,1048.6603624901495,0.2894736842105263
402,1048.6603624901495,0.3092105263157895
403,1048.6603624901495,0.3223684210526315
404,1048.6603624901495,0.3026315789473685
405,1048.6603624901495,0.32894736842105265
406,1048.6603624901495,0.3157894736842105
407,1048.6603624901495,0.29605263157894735
408,1051.457840819543,0.3421052631578947
409,1051.457840819543,0.35526315789473684
410,1051.457840819543,0.3486842105263158
411,1051.457840819543,0.32894736842105265
412,1051.457840819543,0.3355263157894737
413,1054.255319148936,0.35526315789473684
414,1054.255319148936,0.368421052631579
415,1054.255319148936,0.36184210526315785
416,1054.255319148936,0.381578947368421
417,1054.255319148936,0.38815789473684215
418,1054.255319148936,0.375
419,1057.0527974783295,0.38815789473684215
420,1057.0527974783295,0.39473684210526316
421,1059.8502758077225,0.381578947368421
422,1059.8502758077225,0.38815789473684215
423,1059.8502758077225,0.39473684210526316
424,1062.647754137116,0.381578947368421
425,1062.647754137116,0.375
426,1062.647754137116,0.36184210526315785
427,1062.647754137116,0.368421052631579
428,1065.445232466509,0.3092105263157895
429,1065.445232466509,0.3486842105263158
430,1065.445232466509,0.3355263157894737
431,1065.445232466509,0.32894736842105265
432,1065.445232466509,0.3421052631578947
433,1065.445232466509,0.3157894736842105
434,1065.445232466509,0.3223684210526315
435,1065.445232466509,0.36184210526315785
436,1065.445232466509,0.35526315789473684
437,1068.2427107959024,0.2763157894736842
438,1068.2427107959024,0.2828947368421053
439,1068.2427107959024,0.3026315789473685
440,1068.2427107959024,0.2894736842105263
441,1068.2427107959024,0.3092105263157895
442,1068.2427107959024,0.29605263157894735
443,1071.0401891252955,0.26973684210526316
444,1071.0401891252955,0.24342105263157898
445,1071.0401891252955,0.26315789473684215
446,1071.0401891252955,0.256578947368421
447,1071.0401891252955,0.25
448,1071.0401891252955,0.2763157894736842
449,1073.837667454689,0.21052631578947367
450,1073.837667454689,0.22368421052631582
451,1073.837667454689,0.20394736842105265
452,1073.837667454689,0.2171052631578947
453,1073.837667454689,0.19736842105263153
454,1073.837667454689,0.23026315789473684
455,1073.837667454689,0.24342105263157898
456,1073.837667454689,0.23684210526315785
457,1073.837667454689,0.1907894736842105
458,1076.635145784082,0.1907894736842105
459,1076.635145784082,0.17105263157894735
460,1076.635145784082,0.1842105263157895
461,1076.635145784082,0.17763157894736847
462,1079.432624113475,0.15131578947368418
463,1079.432624113475,0.17105263157894735
464,1079.432624113475,0.14473684210526316
465,1079.432624113475,0.16447368421052633
466,1079.432624113475,0.1578947368421053
467,1082.2301024428684,0.13815789473684215
468,1082.2301024428684,0.14473684210526316
469,1085.0275807722614,0.13157894736842102
