,wavenumbers,absorbance
0,452.797478329393,0.02631578947368418
1,455.5949566587865,0.02631578947368418
2,458.3924349881795,0.02631578947368418
3,461.189913317573,0.02631578947368418
4,463.987391646966,0.02631578947368418
5,466.78486997635946,0.02631578947368418
6,469.5823483057525,0.02631578947368418
7,472.37982663514595,0.02631578947368418
8,475.17730496453896,0.02631578947368418
9,477.97478329393243,0.02631578947368418
10,480.77226162332545,0.02631578947368418
11,483.56973995271846,0.02631578947368418
12,486.36721828211193,0.02631578947368418
13,489.16469661150495,0.02631578947368418
14,491.9621749408984,0.02631578947368418
15,494.75965327029144,0.02631578947368418
16,497.5571315996849,0.02631578947368418
17,497.5571315996849,0.03289473684210531
18,500.3546099290779,0.03289473684210531
19,503.1520882584714,0.03289473684210531
20,505.9495665878644,0.03947368421052633
21,505.9495665878644,0.03289473684210531
22,508.7470449172579,0.03947368421052633
23,511.5445232466509,0.03947368421052633
24,514.3420015760439,0.046052631578947345
25,514.3420015760439,0.03947368421052633
26,517.1394799054374,0.046052631578947345
27,519.9369582348304,0.046052631578947345
28,522.7344365642239,0.046052631578947345
29,525.5319148936169,0.046052631578947345
30,528.3293932230104,0.046052631578947345
31,531.1268715524034,0.046052631578947345
32,533.9243498817968,0.046052631578947345
33,536.7218282111899,0.046052631578947345
34,539.5193065405833,0.046052631578947345
35,542.3167848699763,0.046052631578947345
36,545.1142631993694,0.046052631578947345
37,547.9117415287628,0.052631578947368474
38,547.9117415287628,0.046052631578947345
39,550.7092198581558,0.052631578947368474
40,553.5066981875493,0.052631578947368474
41,556.3041765169423,0.052631578947368474
42,559.1016548463358,0.052631578947368474
43,561.8991331757288,0.052631578947368474
44,564.6966115051223,0.052631578947368474
45,567.4940898345153,0.052631578947368474
46,570.2915681639088,0.052631578947368474
47,573.0890464933018,0.052631578947368474
48,575.8865248226948,0.052631578947368474
49,575.8865248226948,0.046052631578947345
50,578.6840031520883,0.046052631578947345
51,581.4814814814813,0.046052631578947345
52,584.2789598108748,0.046052631578947345
53,587.0764381402678,0.03947368421052633
54,587.0764381402678,0.046052631578947345
55,589.8739164696613,0.03947368421052633
56,592.6713947990543,0.03947368421052633
57,595.4688731284477,0.03289473684210531
58,595.4688731284477,0.03947368421052633
59,598.2663514578408,0.03289473684210531
60,601.0638297872342,0.03289473684210531
61,601.0638297872342,0.02631578947368418
62,603.8613081166272,0.02631578947368418
63,606.6587864460207,0.02631578947368418
64,609.4562647754137,0.02631578947368418
65,612.2537431048067,0.02631578947368418
66,615.0512214342002,0.02631578947368418
67,617.8486997635932,0.02631578947368418
68,620.6461780929867,0.02631578947368418
69,623.4436564223797,0.02631578947368418
70,623.4436564223797,0.019736842105263164
71,626.2411347517732,0.019736842105263164
72,629.0386130811662,0.019736842105263164
73,631.8360914105597,0.019736842105263164
74,634.6335697399527,0.019736842105263164
75,637.4310480693462,0.019736842105263164
76,640.2285263987392,0.019736842105263164
77,643.0260047281322,0.019736842105263164
78,645.8234830575257,0.019736842105263164
79,648.6209613869187,0.019736842105263164
80,651.4184397163122,0.019736842105263164
81,654.2159180457052,0.019736842105263164
82,657.0133963750986,0.019736842105263164
83,659.8108747044917,0.019736842105263164
84,662.6083530338851,0.019736842105263164
85,665.4058313632781,0.019736842105263164
86,668.2033096926716,0.019736842105263164
87,671.0007880220646,0.019736842105263164
88,673.7982663514576,0.019736842105263164
89,676.5957446808511,0.019736842105263164
90,679.3932230102441,0.019736842105263164
91,682.1907013396376,0.019736842105263164
92,684.9881796690306,0.019736842105263164
93,687.7856579984241,0.019736842105263164
94,690.5831363278171,0.019736842105263164
95,693.3806146572106,0.019736842105263164
96,696.1780929866036,0.019736842105263164
97,698.9755713159971,0.019736842105263164
98,701.7730496453901,0.019736842105263164
99,704.5705279747831,0.019736842105263164
100,707.3680063041766,0.019736842105263164
101,710.1654846335696,0.019736842105263164
102,712.962962962963,0.019736842105263164
103,715.7604412923561,0.019736842105263164
104,718.5579196217495,0.019736842105263164
105,721.3553979511425,0.019736842105263164
106,724.152876280536,0.019736842105263164
107,726.950354609929,0.019736842105263164
108,729.7478329393225,0.019736842105263164
109,732.5453112687155,0.019736842105263164
110,735.3427895981085,0.019736842105263164
111,738.140267927502,0.019736842105263164
112,740.937746256895,0.019736842105263164
113,743.7352245862885,0.019736842105263164
114,746.5327029156815,0.019736842105263164
115,749.330181245075,0.019736842105263164
116,752.127659574468,0.019736842105263164
117,754.9251379038615,0.019736842105263164
118,757.7226162332545,0.019736842105263164
119,760.520094562648,0.019736842105263164
120,763.317572892041,0.019736842105263164
121,766.115051221434,0.019736842105263164
122,768.9125295508275,0.019736842105263164
123,768.9125295508275,0.02631578947368418
124,771.7100078802205,0.02631578947368418
125,774.507486209614,0.02631578947368418
126,777.304964539007,0.02631578947368418
127,780.1024428684004,0.03289473684210531
128,780.1024428684004,0.02631578947368418
129,782.8999211977934,0.03289473684210531
130,785.6973995271869,0.03289473684210531
131,785.6973995271869,0.03947368421052633
132,788.4948778565799,0.03947368421052633
133,791.2923561859734,0.03947368421052633
134,791.2923561859734,0.046052631578947345
135,794.0898345153664,0.046052631578947345
136,796.8873128447594,0.046052631578947345
137,796.8873128447594,0.052631578947368474
138,799.6847911741529,0.05921052631578949
139,799.6847911741529,0.052631578947368474
140,802.4822695035459,0.05921052631578949
141,805.2797478329394,0.05921052631578949
142,805.2797478329394,0.06578947368421051
143,808.0772261623324,0.07236842105263153
144,808.0772261623324,0.06578947368421051
145,810.8747044917259,0.07894736842105265
146,810.8747044917259,0.07236842105263153
147,813.6721828211189,0.07894736842105265
148,816.4696611505124,0.07894736842105265
149,816.4696611505124,0.08552631578947367
150,819.2671394799054,0.08552631578947367
151,819.2671394799054,0.09210526315789469
152,822.0646178092989,0.09210526315789469
153,822.0646178092989,0.09868421052631582
154,824.8620961386919,0.10526315789473684
155,824.8620961386919,0.09868421052631582
156,827.6595744680849,0.11184210526315785
157,827.6595744680849,0.10526315789473684
158,830.4570527974784,0.11184210526315785
159,830.4570527974784,0.11842105263157898
160,833.2545311268714,0.11842105263157898
161,836.0520094562648,0.11842105263157898
162,836.0520094562648,0.125
163,838.8494877856579,0.125
164,841.6469661150513,0.125
165,844.4444444444443,0.125
166,847.2419227738378,0.125
167,847.2419227738378,0.11842105263157898
168,850.0394011032308,0.11842105263157898
169,852.8368794326243,0.11842105263157898
170,855.6343577620173,0.11842105263157898
171,858.4318360914103,0.11842105263157898
172,861.2293144208038,0.11842105263157898
173,864.0267927501968,0.11184210526315785
174,864.0267927501968,0.11842105263157898
175,866.8242710795903,0.10526315789473684
176,866.8242710795903,0.11184210526315785
177,869.6217494089833,0.10526315789473684
178,872.4192277383768,0.10526315789473684
179,875.2167060677698,0.10526315789473684
180,875.2167060677698,0.09868421052631582
181,878.0141843971633,0.10526315789473684
182,880.8116627265563,0.11184210526315785
183,880.8116627265563,0.10526315789473684
184,883.6091410559497,0.11184210526315785
185,886.4066193853428,0.11184210526315785
186,886.4066193853428,0.10526315789473684
187,889.2040977147362,0.10526315789473684
188,892.0015760441293,0.10526315789473684
189,892.0015760441293,0.11184210526315785
190,894.7990543735223,0.11184210526315785
191,897.5965327029157,0.11842105263157898
192,897.5965327029157,0.11184210526315785
193,900.3940110323088,0.11842105263157898
194,900.3940110323088,0.125
195,903.1914893617022,0.13157894736842102
196,903.1914893617022,0.125
197,905.9889676910952,0.14473684210526316
198,905.9889676910952,0.13157894736842102
199,905.9889676910952,0.13815789473684215
200,908.7864460204887,0.14473684210526316
201,911.5839243498817,0.14473684210526316
202,911.5839243498817,0.1578947368421053
203,911.5839243498817,0.15131578947368418
204,914.3814026792752,0.16447368421052633
205,914.3814026792752,0.1578947368421053
206,917.1788810086682,0.17105263157894735
207,917.1788810086682,0.16447368421052633
208,917.1788810086682,0.1842105263157895
209,917.1788810086682,0.17763157894736847
210,919.9763593380617,0.1842105263157895
211,922.7738376674547,0.1907894736842105
212,922.7738376674547,0.1842105263157895
213,922.7738376674547,0.19736842105263153
214,925.5713159968477,0.19736842105263153
215,928.3687943262412,0.20394736842105265
216,928.3687943262412,0.19736842105263153
217,931.1662726556342,0.20394736842105265
218,933.9637509850277,0.20394736842105265
219,936.7612293144207,0.19736842105263153
220,936.7612293144207,0.20394736842105265
221,939.5587076438142,0.19736842105263153
222,942.3561859732072,0.1907894736842105
223,942.3561859732072,0.19736842105263153
224,945.1536643026006,0.1907894736842105
225,945.1536643026006,0.1842105263157895
226,947.9511426319937,0.1842105263157895
227,950.7486209613871,0.1842105263157895
228,950.7486209613871,0.17763157894736847
229,953.5460992907801,0.16447368421052633
230,953.5460992907801,0.17763157894736847
231,953.5460992907801,0.17105263157894735
232,956.3435776201732,0.1578947368421053
233,956.3435776201732,0.16447368421052633
234,959.1410559495666,0.15131578947368418
235,959.1410559495666,0.1578947368421053
236,961.9385342789597,0.14473684210526316
237,961.9385342789597,0.15131578947368418
238,964.7360126083531,0.13815789473684215
239,964.7360126083531,0.14473684210526316
240,967.5334909377461,0.13815789473684215
241,967.5334909377461,0.13157894736842102
242,970.3309692671396,0.13157894736842102
243,970.3309692671396,0.125
244,973.1284475965326,0.125
245,973.1284475965326,0.11842105263157898
246,975.9259259259261,0.11842105263157898
247,978.7234042553191,0.11842105263157898
248,978.7234042553191,0.11184210526315785
249,981.5208825847126,0.11842105263157898
250,984.3183609141056,0.11842105263157898
251,987.1158392434986,0.11842105263157898
252,987.1158392434986,0.125
253,989.9133175728921,0.13157894736842102
254,989.9133175728921,0.125
255,992.7107959022851,0.13815789473684215
256,992.7107959022851,0.13157894736842102
257,995.5082742316786,0.13815789473684215
258,995.5082742316786,0.14473684210526316
259,998.3057525610716,0.15131578947368418
260,998.3057525610716,0.14473684210526316
261,1001.103230890465,0.1578947368421053
262,1001.103230890465,0.15131578947368418
263,1001.103230890465,0.16447368421052633
264,1003.9007092198581,0.17105263157894735
265,1003.9007092198581,0.17763157894736847
266,1003.9007092198581,0.1842105263157895
267,1003.9007092198581,0.16447368421052633
268,1006.6981875492515,0.1907894736842105
269,1006.6981875492515,0.1842105263157895
270,1009.4956658786446,0.19736842105263153
271,1009.4956658786446,0.1907894736842105
272,1009.4956658786446,0.20394736842105265
273,1012.293144208038,0.20394736842105265
274,1015.090622537431,0.20394736842105265
275,1017.8881008668241,0.20394736842105265
276,1020.6855791962175,0.21052631578947367
277,1020.6855791962175,0.20394736842105265
278,1023.4830575256105,0.21052631578947367
279,1023.4830575256105,0.2171052631578947
280,1026.280535855004,0.2171052631578947
281,1026.280535855004,0.22368421052631582
282,1029.078014184397,0.22368421052631582
283,1029.078014184397,0.23684210526315785
284,1029.078014184397,0.23026315789473684
285,1031.8754925137905,0.23684210526315785
286,1031.8754925137905,0.24342105263157898
287,1034.6729708431835,0.256578947368421
288,1034.6729708431835,0.25
289,1034.6729708431835,0.24342105263157898
290,1037.470449172577,0.26315789473684215
291,1037.470449172577,0.256578947368421
292,1040.26792750197,0.26973684210526316
293,1040.26792750197,0.2763157894736842
294,1040.26792750197,0.26315789473684215
295,1040.26792750197,0.2828947368421053
296,1040.26792750197,0.2894736842105263
297,1043.0654058313635,0.2894736842105263
298,1043.0654058313635,0.29605263157894735
299,1043.0654058313635,0.3026315789473685
300,1045.8628841607565,0.3026315789473685
301,1045.8628841607565,0.3092105263157895
302,1045.8628841607565,0.3157894736842105
303,1045.8628841607565,0.3223684210526315
304,1048.6603624901495,0.3223684210526315
305,1048.6603624901495,0.3355263157894737
306,1048.6603624901495,0.36184210526315785
307,1048.6603624901495,0.35526315789473684
308,1048.6603624901495,0.32894736842105265
309,1048.6603624901495,0.3486842105263158
310,1048.6603624901495,0.3421052631578947
311,1051.457840819543,0.36184210526315785
312,1051.457840819543,0.381578947368421
313,1051.457840819543,0.368421052631579
314,1051.457840819543,0.375
315,1054.255319148936,0.38815789473684215
316,1054.255319148936,0.4144736842105263
317,1054.255319148936,0.4013157894736842
318,1054.255319148936,0.42105263157894735
319,1054.255319148936,0.4276315789473685
320,1054.255319148936,0.39473684210526316
321,1054.255319148936,0.381578947368421
322,1054.255319148936,0.4078947368421053
323,1057.0527974783295,0.4276315789473685
324,1057.0527974783295,0.4407894736842105
325,1057.0527974783295,0.4473684210526315
326,1057.0527974783295,0.45394736842105265
327,1057.0527974783295,0.4342105263157895
328,1059.8502758077225,0.48026315789473684
329,1059.8502758077225,0.45394736842105265
330,1059.8502758077225,0.4736842105263158
331,1059.8502758077225,0.493421052631579
332,1059.8502758077225,0.5
333,1059.8502758077225,0.48684210526315785
334,1059.8502758077225,0.4605263157894737
335,1059.8502758077225,0.4671052631578947
336,1062.647754137116,0.513157894736842
337,1062.647754137116,0.5
338,1062.647754137116,0.506578947368421
339,1062.647754137116,0.5197368421052632
340,1065.445232466509,0.5263157894736843
341,1065.445232466509,0.5394736842105263
342,1065.445232466509,0.5197368421052632
343,1065.445232466509,0.5460526315789473
344,1065.445232466509,0.5592105263157895
345,1065.445232466509,0.5328947368421053
346,1065.445232466509,0.5526315789473684
347,1068.2427107959024,0.5657894736842105
348,1068.2427107959024,0.5789473684210527
349,1068.2427107959024,0.5592105263157895
350,1068.2427107959024,0.5723684210526316
351,1071.0401891252955,0.5789473684210527
352,1071.0401891252955,0.5921052631578947
353,1071.0401891252955,0.5855263157894737
354,1071.0401891252955,0.5986842105263157
355,1071.0401891252955,0.6052631578947368
356,1073.837667454689,0.631578947368421
357,1073.837667454689,0.6052631578947368
358,1073.837667454689,0.638157894736842
359,1073.837667454689,0.6447368421052632
360,1073.837667454689,0.625
361,1073.837667454689,0.6513157894736843
362,1073.837667454689,0.6578947368421053
363,1073.837667454689,0.6644736842105263
364,1073.837667454689,0.611842105263158
365,1073.837667454689,0.618421052631579
366,1076.635145784082,0.6776315789473684
367,1076.635145784082,0.6842105263157895
368,1076.635145784082,0.6973684210526316
369,1076.635145784082,0.6710526315789473
370,1076.635145784082,0.6644736842105263
371,1076.635145784082,0.6907894736842105
372,1079.432624113475,0.7039473684210527
373,1079.432624113475,0.7171052631578947
374,1079.432624113475,0.6973684210526316
375,1079.432624113475,0.756578947368421
376,1079.432624113475,0.75
377,1079.432624113475,0.743421052631579
378,1079.432624113475,0.736842105263158
379,1079.432624113475,0.7302631578947368
380,1079.432624113475,0.7236842105263157
381,1079.432624113475,0.7105263157894737
382,1082.2301024428684,0.756578947368421
383,1082.2301024428684,0.7697368421052632
384,1082.2301024428684,0.7763157894736842
385,1082.2301024428684,0.7828947368421053
386,1082.2301024428684,0.7631578947368421
387,1085.0275807722614,0.8092105263157895
388,1085.0275807722614,0.8157894736842105
389,1085.0275807722614,0.8421052631578947
390,1085.0275807722614,0.8223684210526316
391,1085.0275807722614,0.8026315789473684
392,1085.0275807722614,0.8289473684210527
393,1085.0275807722614,0.8355263157894737
394,1085.0275807722614,0.7960526315789473
395,1085.0275807722614,0.7894736842105263
396,1085.0275807722614,0.7828947368421053
397,1087.825059101655,0.8421052631578947
398,1087.825059101655,0.8486842105263158
399,1087.825059101655,0.8552631578947368
400,1087.825059101655,0.868421052631579
401,1087.825059101655,0.8618421052631579
402,1090.622537431048,0.8947368421052632
403,1090.622537431048,0.8881578947368421
404,1090.622537431048,0.9078947368421053
405,1090.622537431048,0.868421052631579
406,1090.622537431048,0.9013157894736842
407,1090.622537431048,0.881578947368421
408,1090.622537431048,0.9210526315789473
409,1090.622537431048,0.875
410,1090.622537431048,0.9144736842105263
411,1093.4200157604414,0.9407894736842105
412,1093.4200157604414,0.9342105263157895
413,1093.4200157604414,0.9276315789473684
414,1093.4200157604414,0.9210526315789473
415,1096.2174940898344,0.9605263157894737
416,1096.2174940898344,0.9671052631578947
417,1096.2174940898344,0.9473684210526316
418,1096.2174940898344,0.9736842105263158
419,1096.2174940898344,0.9407894736842105
420,1096.2174940898344,0.9539473684210527
421,1099.014972419228,0.9736842105263158
422,1099.014972419228,0.9868421052631579
423,1099.014972419228,0.9802631578947368
424,1101.812450748621,1.0
425,1101.812450748621,0.993421052631579
426,1101.812450748621,0.9868421052631579
427,1104.6099290780144,1.0
428,1110.2048857368004,1.0
429,1113.0023640661939,1.0
430,1113.0023640661939,0.993421052631579
431,1113.0023640661939,0.9868421052631579
432,1115.799842395587,0.9605263157894737
433,1115.799842395587,0.9671052631578947
434,1115.799842395587,0.9736842105263158
435,1115.799842395587,0.9868421052631579
436,1115.799842395587,0.9802631578947368
437,1118.5973207249804,0.9407894736842105
438,1118.5973207249804,0.9473684210526316
439,1118.5973207249804,0.9539473684210527
440,1118.5973207249804,0.9605263157894737
441,1121.3947990543734,0.9210526315789473
442,1121.3947990543734,0.9342105263157895
443,1121.3947990543734,0.9078947368421053
444,1121.3947990543734,0.9407894736842105
445,1121.3947990543734,0.9013157894736842
446,1121.3947990543734,0.9144736842105263
447,1121.3947990543734,0.9276315789473684
448,1124.1922773837669,0.8881578947368421
449,1124.1922773837669,0.881578947368421
450,1124.1922773837669,0.9013157894736842
451,1124.1922773837669,0.8947368421052632
452,1126.9897557131599,0.881578947368421
453,1126.9897557131599,0.875
454,1126.9897557131599,0.868421052631579
455,1126.9897557131599,0.8618421052631579
456,1129.7872340425533,0.8618421052631579
457,1129.7872340425533,0.8552631578947368
458,1129.7872340425533,0.8486842105263158
459,1129.7872340425533,0.8421052631578947
460,1129.7872340425533,0.8355263157894737
461,1129.7872340425533,0.8289473684210527
462,1132.5847123719464,0.8223684210526316
463,1132.5847123719464,0.8157894736842105
464,1132.5847123719464,0.8289473684210527
465,1132.5847123719464,0.8092105263157895
466,1135.3821907013398,0.8092105263157895
467,1135.3821907013398,0.8026315789473684
468,1135.3821907013398,0.7960526315789473
469,1135.3821907013398,0.7894736842105263
470,1135.3821907013398,0.7828947368421053
471,1138.1796690307328,0.7631578947368421
472,1138.1796690307328,0.7828947368421053
473,1138.1796690307328,0.7763157894736842
474,1138.1796690307328,0.7697368421052632
