,wavenumbers,absorbance
0,452.797478329393,0.019736842105263164
1,455.5949566587865,0.019736842105263164
2,458.3924349881795,0.019736842105263164
3,461.189913317573,0.019736842105263164
4,463.987391646966,0.019736842105263164
5,466.78486997635946,0.02631578947368418
6,466.78486997635946,0.019736842105263164
7,469.5823483057525,0.019736842105263164
8,469.5823483057525,0.02631578947368418
9,472.37982663514595,0.019736842105263164
10,475.17730496453896,0.019736842105263164
11,477.97478329393243,0.019736842105263164
12,480.77226162332545,0.019736842105263164
13,483.56973995271846,0.019736842105263164
14,486.36721828211193,0.019736842105263164
15,489.16469661150495,0.019736842105263164
16,491.9621749408984,0.019736842105263164
17,491.9621749408984,0.013157894736842146
18,494.75965327029144,0.013157894736842146
19,494.75965327029144,0.019736842105263164
20,497.5571315996849,0.019736842105263164
21,500.3546099290779,0.019736842105263164
22,503.1520882584714,0.019736842105263164
23,505.9495665878644,0.019736842105263164
24,508.7470449172579,0.019736842105263164
25,511.5445232466509,0.019736842105263164
26,514.3420015760439,0.019736842105263164
27,517.1394799054374,0.019736842105263164
28,519.9369582348304,0.019736842105263164
29,522.7344365642239,0.019736842105263164
30,525.5319148936169,0.019736842105263164
31,528.3293932230104,0.019736842105263164
32,531.1268715524034,0.019736842105263164
33,533.9243498817968,0.019736842105263164
34,536.7218282111899,0.019736842105263164
35,539.5193065405833,0.019736842105263164
36,542.3167848699763,0.019736842105263164
37,545.1142631993694,0.019736842105263164
38,547.9117415287628,0.019736842105263164
39,550.7092198581558,0.019736842105263164
40,553.5066981875493,0.019736842105263164
41,556.3041765169423,0.019736842105263164
42,559.1016548463358,0.019736842105263164
43,561.8991331757288,0.019736842105263164
44,564.6966115051223,0.019736842105263164
45,567.4940898345153,0.019736842105263164
46,570.2915681639088,0.019736842105263164
47,573.0890464933018,0.019736842105263164
48,575.8865248226948,0.019736842105263164
49,578.6840031520883,0.019736842105263164
50,581.4814814814813,0.019736842105263164
51,584.2789598108748,0.019736842105263164
52,587.0764381402678,0.019736842105263164
53,589.8739164696613,0.019736842105263164
54,592.6713947990543,0.019736842105263164
55,595.4688731284477,0.019736842105263164
56,598.2663514578408,0.019736842105263164
57,601.0638297872342,0.019736842105263164
58,603.8613081166272,0.019736842105263164
59,606.6587864460207,0.019736842105263164
60,609.4562647754137,0.019736842105263164
61,612.2537431048067,0.019736842105263164
62,615.0512214342002,0.019736842105263164
63,617.8486997635932,0.019736842105263164
64,620.6461780929867,0.019736842105263164
65,620.6461780929867,0.02631578947368418
66,623.4436564223797,0.02631578947368418
67,626.2411347517732,0.019736842105263164
68,626.2411347517732,0.02631578947368418
69,629.0386130811662,0.019736842105263164
70,631.8360914105597,0.019736842105263164
71,634.6335697399527,0.019736842105263164
72,637.4310480693462,0.019736842105263164
73,640.2285263987392,0.019736842105263164
74,643.0260047281322,0.019736842105263164
75,645.8234830575257,0.019736842105263164
76,648.6209613869187,0.019736842105263164
77,651.4184397163122,0.019736842105263164
78,654.2159180457052,0.019736842105263164
79,657.0133963750986,0.019736842105263164
80,659.8108747044917,0.019736842105263164
81,662.6083530338851,0.019736842105263164
82,665.4058313632781,0.019736842105263164
83,668.2033096926716,0.019736842105263164
84,671.0007880220646,0.019736842105263164
85,673.7982663514576,0.019736842105263164
86,676.5957446808511,0.019736842105263164
87,679.3932230102441,0.019736842105263164
88,682.1907013396376,0.019736842105263164
89,684.9881796690306,0.019736842105263164
90,687.7856579984241,0.019736842105263164
91,687.7856579984241,0.02631578947368418
92,690.5831363278171,0.02631578947368418
93,693.3806146572106,0.02631578947368418
94,693.3806146572106,0.03289473684210531
95,696.1780929866036,0.03289473684210531
96,698.9755713159971,0.03289473684210531
97,701.7730496453901,0.03289473684210531
98,704.5705279747831,0.03289473684210531
99,707.3680063041766,0.03289473684210531
100,710.1654846335696,0.03289473684210531
101,712.962962962963,0.046052631578947345
102,712.962962962963,0.03289473684210531
103,712.962962962963,0.03947368421052633
104,715.7604412923561,0.046052631578947345
105,715.7604412923561,0.052631578947368474
106,718.5579196217495,0.046052631578947345
107,718.5579196217495,0.052631578947368474
108,721.3553979511425,0.046052631578947345
109,724.152876280536,0.03947368421052633
110,724.152876280536,0.046052631578947345
111,726.950354609929,0.03947368421052633
112,726.950354609929,0.03289473684210531
113,729.7478329393225,0.03289473684210531
114,732.5453112687155,0.03289473684210531
115,735.3427895981085,0.03289473684210531
116,738.140267927502,0.02631578947368418
117,738.140267927502,0.03289473684210531
118,740.937746256895,0.02631578947368418
119,743.7352245862885,0.02631578947368418
120,746.5327029156815,0.019736842105263164
121,746.5327029156815,0.02631578947368418
122,749.330181245075,0.019736842105263164
123,752.127659574468,0.019736842105263164
124,754.9251379038615,0.019736842105263164
125,757.7226162332545,0.019736842105263164
126,760.520094562648,0.019736842105263164
127,763.317572892041,0.019736842105263164
128,766.115051221434,0.019736842105263164
129,768.9125295508275,0.019736842105263164
130,771.7100078802205,0.019736842105263164
131,774.507486209614,0.019736842105263164
132,777.304964539007,0.019736842105263164
133,780.1024428684004,0.019736842105263164
134,782.8999211977934,0.019736842105263164
135,785.6973995271869,0.019736842105263164
136,788.4948778565799,0.02631578947368418
137,791.2923561859734,0.02631578947368418
138,794.0898345153664,0.02631578947368418
139,796.8873128447594,0.02631578947368418
140,799.6847911741529,0.02631578947368418
141,802.4822695035459,0.02631578947368418
142,805.2797478329394,0.02631578947368418
143,808.0772261623324,0.02631578947368418
144,810.8747044917259,0.02631578947368418
145,813.6721828211189,0.02631578947368418
146,816.4696611505124,0.019736842105263164
147,816.4696611505124,0.02631578947368418
148,819.2671394799054,0.019736842105263164
149,822.0646178092989,0.019736842105263164
150,824.8620961386919,0.019736842105263164
151,827.6595744680849,0.019736842105263164
152,830.4570527974784,0.019736842105263164
153,833.2545311268714,0.019736842105263164
154,836.0520094562648,0.019736842105263164
155,838.8494877856579,0.019736842105263164
156,841.6469661150513,0.019736842105263164
157,844.4444444444443,0.019736842105263164
158,847.2419227738378,0.019736842105263164
159,850.0394011032308,0.019736842105263164
160,852.8368794326243,0.019736842105263164
161,855.6343577620173,0.019736842105263164
162,858.4318360914103,0.019736842105263164
163,861.2293144208038,0.019736842105263164
164,864.0267927501968,0.019736842105263164
165,866.8242710795903,0.019736842105263164
166,869.6217494089833,0.019736842105263164
167,872.4192277383768,0.019736842105263164
168,875.2167060677698,0.019736842105263164
169,878.0141843971633,0.019736842105263164
170,880.8116627265563,0.019736842105263164
171,883.6091410559497,0.019736842105263164
172,886.4066193853428,0.019736842105263164
173,889.2040977147362,0.019736842105263164
174,892.0015760441293,0.019736842105263164
175,894.7990543735223,0.019736842105263164
176,897.5965327029157,0.019736842105263164
177,900.3940110323088,0.019736842105263164
178,903.1914893617022,0.019736842105263164
179,905.9889676910952,0.019736842105263164
180,908.7864460204887,0.019736842105263164
181,911.5839243498817,0.019736842105263164
182,914.3814026792752,0.019736842105263164
183,917.1788810086682,0.019736842105263164
184,919.9763593380617,0.019736842105263164
185,922.7738376674547,0.019736842105263164
186,925.5713159968477,0.019736842105263164
187,928.3687943262412,0.019736842105263164
188,931.1662726556342,0.019736842105263164
189,933.9637509850277,0.019736842105263164
190,936.7612293144207,0.019736842105263164
191,936.7612293144207,0.02631578947368418
192,939.5587076438142,0.02631578947368418
193,942.3561859732072,0.02631578947368418
194,945.1536643026006,0.02631578947368418
195,947.9511426319937,0.02631578947368418
196,950.7486209613871,0.02631578947368418
197,953.5460992907801,0.02631578947368418
198,956.3435776201732,0.02631578947368418
199,959.1410559495666,0.02631578947368418
200,961.9385342789597,0.02631578947368418
201,964.7360126083531,0.02631578947368418
202,967.5334909377461,0.02631578947368418
203,970.3309692671396,0.02631578947368418
204,973.1284475965326,0.02631578947368418
205,975.9259259259261,0.02631578947368418
206,978.7234042553191,0.02631578947368418
207,981.5208825847126,0.02631578947368418
208,984.3183609141056,0.02631578947368418
209,987.1158392434986,0.02631578947368418
210,989.9133175728921,0.02631578947368418
211,992.7107959022851,0.02631578947368418
212,995.5082742316786,0.02631578947368418
213,998.3057525610716,0.02631578947368418
214,1001.103230890465,0.03289473684210531
215,1001.103230890465,0.02631578947368418
216,1003.9007092198581,0.03289473684210531
217,1006.6981875492515,0.03289473684210531
218,1009.4956658786446,0.03947368421052633
219,1009.4956658786446,0.03289473684210531
220,1012.293144208038,0.03947368421052633
221,1015.090622537431,0.03947368421052633
222,1017.8881008668241,0.046052631578947345
223,1017.8881008668241,0.03947368421052633
224,1020.6855791962175,0.046052631578947345
225,1023.4830575256105,0.046052631578947345
226,1023.4830575256105,0.052631578947368474
227,1026.280535855004,0.052631578947368474
228,1029.078014184397,0.052631578947368474
229,1031.8754925137905,0.052631578947368474
230,1034.6729708431835,0.052631578947368474
231,1034.6729708431835,0.05921052631578949
232,1037.470449172577,0.05921052631578949
233,1040.26792750197,0.05921052631578949
234,1043.0654058313635,0.05921052631578949
235,1045.8628841607565,0.05921052631578949
236,1048.6603624901495,0.05921052631578949
237,1051.457840819543,0.05921052631578949
238,1054.255319148936,0.05921052631578949
239,1057.0527974783295,0.05921052631578949
240,1059.8502758077225,0.05921052631578949
241,1062.647754137116,0.05921052631578949
242,1065.445232466509,0.05921052631578949
243,1065.445232466509,0.06578947368421051
244,1068.2427107959024,0.06578947368421051
245,1071.0401891252955,0.06578947368421051
246,1073.837667454689,0.06578947368421051
247,1076.635145784082,0.06578947368421051
248,1079.432624113475,0.06578947368421051
249,1082.2301024428684,0.06578947368421051
250,1085.0275807722614,0.06578947368421051
251,1087.825059101655,0.06578947368421051
252,1090.622537431048,0.06578947368421051
253,1093.4200157604414,0.06578947368421051
254,1096.2174940898344,0.06578947368421051
255,1099.014972419228,0.06578947368421051
256,1101.812450748621,0.06578947368421051
257,1104.6099290780144,0.06578947368421051
258,1104.6099290780144,0.05921052631578949
259,1107.4074074074074,0.05921052631578949
260,1110.2048857368004,0.05921052631578949
261,1113.0023640661939,0.05921052631578949
262,1115.799842395587,0.05921052631578949
263,1118.5973207249804,0.05921052631578949
264,1121.3947990543734,0.05921052631578949
265,1121.3947990543734,0.052631578947368474
266,1124.1922773837669,0.052631578947368474
267,1126.9897557131599,0.052631578947368474
268,1129.7872340425533,0.052631578947368474
269,1129.7872340425533,0.046052631578947345
270,1132.5847123719464,0.046052631578947345
271,1135.3821907013398,0.046052631578947345
272,1138.1796690307328,0.046052631578947345
273,1140.9771473601263,0.046052631578947345
274,1143.7746256895193,0.046052631578947345
275,1146.5721040189123,0.046052631578947345
276,1149.3695823483058,0.046052631578947345
277,1149.3695823483058,0.03947368421052633
278,1152.1670606776988,0.03947368421052633
279,1154.9645390070923,0.03947368421052633
280,1157.7620173364853,0.03947368421052633
281,1160.5594956658788,0.03947368421052633
282,1163.3569739952718,0.03947368421052633
283,1166.1544523246653,0.03289473684210531
284,1166.1544523246653,0.03947368421052633
285,1168.9519306540583,0.03289473684210531
286,1171.7494089834518,0.03289473684210531
287,1174.5468873128448,0.03289473684210531
288,1177.3443656422378,0.03289473684210531
289,1180.1418439716313,0.03289473684210531
290,1182.9393223010243,0.02631578947368418
291,1182.9393223010243,0.03289473684210531
292,1185.7368006304177,0.02631578947368418
293,1188.5342789598108,0.02631578947368418
294,1191.3317572892042,0.02631578947368418
295,1194.1292356185972,0.02631578947368418
296,1196.9267139479907,0.02631578947368418
297,1199.7241922773837,0.02631578947368418
298,1202.5216706067772,0.02631578947368418
299,1205.3191489361702,0.02631578947368418
300,1208.1166272655632,0.02631578947368418
301,1210.9141055949567,0.02631578947368418
302,1213.7115839243497,0.02631578947368418
303,1216.5090622537432,0.02631578947368418
304,1219.3065405831362,0.02631578947368418
305,1222.1040189125297,0.02631578947368418
306,1224.9014972419227,0.02631578947368418
307,1227.6989755713162,0.02631578947368418
308,1230.4964539007092,0.02631578947368418
309,1233.2939322301027,0.02631578947368418
310,1236.0914105594957,0.02631578947368418
311,1238.8888888888887,0.03289473684210531
312,1238.8888888888887,0.02631578947368418
313,1241.6863672182822,0.03947368421052633
314,1241.6863672182822,0.03289473684210531
315,1244.4838455476752,0.03947368421052633
316,1244.4838455476752,0.046052631578947345
317,1247.2813238770686,0.03947368421052633
318,1247.2813238770686,0.03289473684210531
319,1247.2813238770686,0.046052631578947345
320,1250.0788022064617,0.03289473684210531
321,1252.8762805358551,0.03289473684210531
322,1252.8762805358551,0.03947368421052633
323,1255.6737588652481,0.03947368421052633
324,1258.4712371946416,0.03289473684210531
325,1258.4712371946416,0.03947368421052633
326,1261.2687155240346,0.03289473684210531
327,1264.066193853428,0.03289473684210531
328,1266.8636721828211,0.03289473684210531
329,1269.6611505122141,0.03289473684210531
330,1272.4586288416076,0.03289473684210531
331,1272.4586288416076,0.02631578947368418
332,1275.2561071710006,0.02631578947368418
333,1278.053585500394,0.03289473684210531
334,1278.053585500394,0.02631578947368418
335,1280.851063829787,0.03289473684210531
336,1283.6485421591806,0.03289473684210531
337,1286.4460204885736,0.03289473684210531
338,1289.243498817967,0.03289473684210531
339,1292.04097714736,0.03289473684210531
340,1294.8384554767536,0.03289473684210531
341,1297.6359338061466,0.03289473684210531
342,1300.4334121355396,0.03289473684210531
343,1303.230890464933,0.03289473684210531
344,1306.028368794326,0.03289473684210531
345,1308.8258471237195,0.03289473684210531
346,1311.6233254531126,0.03289473684210531
347,1314.420803782506,0.02631578947368418
348,1314.420803782506,0.03289473684210531
349,1317.218282111899,0.02631578947368418
350,1320.0157604412925,0.02631578947368418
351,1320.0157604412925,0.03289473684210531
352,1322.8132387706855,0.03289473684210531
353,1325.610717100079,0.03289473684210531
354,1328.408195429472,0.03289473684210531
355,1331.205673758865,0.03289473684210531
356,1334.0031520882585,0.03289473684210531
357,1334.0031520882585,0.03947368421052633
358,1336.8006304176515,0.03947368421052633
359,1339.598108747045,0.03947368421052633
360,1342.395587076438,0.03947368421052633
361,1345.1930654058315,0.03947368421052633
362,1347.9905437352245,0.03947368421052633
363,1350.788022064618,0.03947368421052633
364,1353.585500394011,0.046052631578947345
365,1353.585500394011,0.03947368421052633
366,1356.3829787234044,0.046052631578947345
367,1359.1804570527975,0.046052631578947345
368,1359.1804570527975,0.05921052631578949
369,1359.1804570527975,0.052631578947368474
370,1361.9779353821905,0.06578947368421051
371,1361.9779353821905,0.05921052631578949
372,1364.775413711584,0.07236842105263153
373,1364.775413711584,0.06578947368421051
374,1367.572892040977,0.08552631578947367
375,1367.572892040977,0.07894736842105265
376,1367.572892040977,0.07236842105263153
377,1370.3703703703704,0.11842105263157898
378,1370.3703703703704,0.09868421052631582
379,1370.3703703703704,0.11184210526315785
380,1370.3703703703704,0.10526315789473684
381,1370.3703703703704,0.08552631578947367
382,1370.3703703703704,0.09210526315789469
383,1373.1678486997635,0.11842105263157898
384,1375.965327029157,0.08552631578947367
385,1375.965327029157,0.11842105263157898
386,1375.965327029157,0.11184210526315785
387,1375.965327029157,0.09868421052631582
388,1375.965327029157,0.10526315789473684
389,1375.965327029157,0.09210526315789469
390,1378.76280535855,0.08552631578947367
391,1378.76280535855,0.07894736842105265
392,1378.76280535855,0.07236842105263153
393,1381.5602836879434,0.05921052631578949
394,1381.5602836879434,0.07236842105263153
395,1381.5602836879434,0.06578947368421051
396,1384.3577620173364,0.05921052631578949
397,1384.3577620173364,0.052631578947368474
398,1384.3577620173364,0.046052631578947345
399,1384.3577620173364,0.03947368421052633
400,1387.15524034673,0.03289473684210531
401,1387.15524034673,0.03947368421052633
402,1389.952718676123,0.03289473684210531
403,1392.750197005516,0.03289473684210531
404,1395.5476753349094,0.03289473684210531
405,1398.3451536643024,0.03289473684210531
406,1401.1426319936959,0.03289473684210531
407,1403.940110323089,0.03289473684210531
408,1406.7375886524824,0.03289473684210531
409,1409.5350669818754,0.03289473684210531
410,1412.3325453112689,0.03289473684210531
411,1415.1300236406619,0.03289473684210531
412,1417.9275019700553,0.03289473684210531
413,1420.7249802994484,0.03947368421052633
414,1420.7249802994484,0.03289473684210531
415,1423.5224586288418,0.03947368421052633
416,1426.3199369582348,0.046052631578947345
417,1426.3199369582348,0.03947368421052633
418,1426.3199369582348,0.052631578947368474
419,1429.1174152876279,0.052631578947368474
420,1429.1174152876279,0.05921052631578949
421,1431.9148936170213,0.07236842105263153
422,1431.9148936170213,0.07894736842105265
423,1431.9148936170213,0.06578947368421051
424,1431.9148936170213,0.05921052631578949
425,1434.7123719464144,0.08552631578947367
426,1434.7123719464144,0.07894736842105265
427,1437.5098502758078,0.09868421052631582
428,1437.5098502758078,0.10526315789473684
429,1437.5098502758078,0.09210526315789469
430,1437.5098502758078,0.11184210526315785
431,1437.5098502758078,0.08552631578947367
432,1440.3073286052008,0.11842105263157898
433,1440.3073286052008,0.125
434,1440.3073286052008,0.11184210526315785
435,1443.1048069345943,0.13157894736842102
436,1443.1048069345943,0.125
437,1445.9022852639873,0.13157894736842102
438,1445.9022852639873,0.14473684210526316
439,1445.9022852639873,0.15131578947368418
440,1445.9022852639873,0.13815789473684215
441,1445.9022852639873,0.1578947368421053
442,1448.6997635933808,0.16447368421052633
443,1448.6997635933808,0.1578947368421053
444,1448.6997635933808,0.17105263157894735
445,1451.4972419227738,0.19736842105263153
446,1451.4972419227738,0.17763157894736847
447,1451.4972419227738,0.17105263157894735
448,1451.4972419227738,0.1907894736842105
449,1451.4972419227738,0.1842105263157895
450,1454.2947202521673,0.19736842105263153
451,1457.0921985815603,0.20394736842105265
452,1457.0921985815603,0.19736842105263153
453,1459.8896769109533,0.19736842105263153
454,1459.8896769109533,0.20394736842105265
455,1462.6871552403468,0.19736842105263153
456,1462.6871552403468,0.16447368421052633
457,1462.6871552403468,0.1578947368421053
458,1462.6871552403468,0.17763157894736847
