,wavenumbers,absorbance
0,452.797478329393,0.02631578947368418
1,452.797478329393,0.019736842105263164
2,455.5949566587865,0.019736842105263164
3,458.3924349881795,0.02631578947368418
4,458.3924349881795,0.019736842105263164
5,461.189913317573,0.02631578947368418
6,463.987391646966,0.02631578947368418
7,466.78486997635946,0.02631578947368418
8,469.5823483057525,0.02631578947368418
9,472.37982663514595,0.02631578947368418
10,475.17730496453896,0.02631578947368418
11,477.97478329393243,0.02631578947368418
12,477.97478329393243,0.019736842105263164
13,480.77226162332545,0.019736842105263164
14,480.77226162332545,0.02631578947368418
15,483.56973995271846,0.02631578947368418
16,486.36721828211193,0.02631578947368418
17,489.16469661150495,0.019736842105263164
18,489.16469661150495,0.02631578947368418
19,491.9621749408984,0.02631578947368418
20,491.9621749408984,0.019736842105263164
21,494.75965327029144,0.02631578947368418
22,497.5571315996849,0.02631578947368418
23,500.3546099290779,0.02631578947368418
24,503.1520882584714,0.02631578947368418
25,505.9495665878644,0.02631578947368418
26,508.7470449172579,0.02631578947368418
27,511.5445232466509,0.02631578947368418
28,514.3420015760439,0.02631578947368418
29,517.1394799054374,0.02631578947368418
30,519.9369582348304,0.02631578947368418
31,522.7344365642239,0.02631578947368418
32,525.5319148936169,0.02631578947368418
33,528.3293932230104,0.02631578947368418
34,531.1268715524034,0.02631578947368418
35,533.9243498817968,0.02631578947368418
36,536.7218282111899,0.02631578947368418
37,539.5193065405833,0.02631578947368418
38,542.3167848699763,0.02631578947368418
39,545.1142631993694,0.02631578947368418
40,547.9117415287628,0.02631578947368418
41,550.7092198581558,0.02631578947368418
42,553.5066981875493,0.02631578947368418
43,556.3041765169423,0.02631578947368418
44,559.1016548463358,0.02631578947368418
45,561.8991331757288,0.02631578947368418
46,564.6966115051223,0.02631578947368418
47,567.4940898345153,0.02631578947368418
48,570.2915681639088,0.02631578947368418
49,573.0890464933018,0.02631578947368418
50,575.8865248226948,0.02631578947368418
51,578.6840031520883,0.02631578947368418
52,581.4814814814813,0.02631578947368418
53,584.2789598108748,0.02631578947368418
54,587.0764381402678,0.02631578947368418
55,589.8739164696613,0.02631578947368418
56,589.8739164696613,0.019736842105263164
57,592.6713947990543,0.019736842105263164
58,595.4688731284477,0.019736842105263164
59,598.2663514578408,0.019736842105263164
60,601.0638297872342,0.019736842105263164
61,603.8613081166272,0.019736842105263164
62,606.6587864460207,0.019736842105263164
63,609.4562647754137,0.019736842105263164
64,612.2537431048067,0.019736842105263164
65,615.0512214342002,0.019736842105263164
66,617.8486997635932,0.019736842105263164
67,620.6461780929867,0.019736842105263164
68,623.4436564223797,0.019736842105263164
69,626.2411347517732,0.019736842105263164
70,629.0386130811662,0.019736842105263164
71,631.8360914105597,0.013157894736842146
72,631.8360914105597,0.019736842105263164
73,634.6335697399527,0.019736842105263164
74,637.4310480693462,0.019736842105263164
75,640.2285263987392,0.019736842105263164
76,643.0260047281322,0.019736842105263164
77,645.8234830575257,0.019736842105263164
78,648.6209613869187,0.019736842105263164
79,651.4184397163122,0.019736842105263164
80,654.2159180457052,0.019736842105263164
81,657.0133963750986,0.019736842105263164
82,659.8108747044917,0.019736842105263164
83,662.6083530338851,0.019736842105263164
84,665.4058313632781,0.019736842105263164
85,668.2033096926716,0.019736842105263164
86,671.0007880220646,0.019736842105263164
87,673.7982663514576,0.019736842105263164
88,676.5957446808511,0.019736842105263164
89,679.3932230102441,0.019736842105263164
90,682.1907013396376,0.019736842105263164
91,682.1907013396376,0.02631578947368418
92,684.9881796690306,0.02631578947368418
93,687.7856579984241,0.02631578947368418
94,690.5831363278171,0.02631578947368418
95,693.3806146572106,0.02631578947368418
96,693.3806146572106,0.03289473684210531
97,696.1780929866036,0.03289473684210531
98,698.9755713159971,0.03289473684210531
99,701.7730496453901,0.03289473684210531
100,704.5705279747831,0.03289473684210531
101,707.3680063041766,0.03289473684210531
102,707.3680063041766,0.03947368421052633
103,710.1654846335696,0.03947368421052633
104,712.962962962963,0.046052631578947345
105,712.962962962963,0.03947368421052633
106,715.7604412923561,0.046052631578947345
107,715.7604412923561,0.052631578947368474
108,718.5579196217495,0.052631578947368474
109,721.3553979511425,0.052631578947368474
110,724.152876280536,0.046052631578947345
111,724.152876280536,0.052631578947368474
112,726.950354609929,0.03947368421052633
113,726.950354609929,0.046052631578947345
114,729.7478329393225,0.03947368421052633
115,732.5453112687155,0.03289473684210531
116,732.5453112687155,0.03947368421052633
117,735.3427895981085,0.03289473684210531
118,738.140267927502,0.03289473684210531
119,740.937746256895,0.02631578947368418
120,740.937746256895,0.03289473684210531
121,743.7352245862885,0.02631578947368418
122,746.5327029156815,0.02631578947368418
123,749.330181245075,0.02631578947368418
124,752.127659574468,0.02631578947368418
125,754.9251379038615,0.02631578947368418
126,757.7226162332545,0.02631578947368418
127,760.520094562648,0.02631578947368418
128,763.317572892041,0.02631578947368418
129,766.115051221434,0.02631578947368418
130,768.9125295508275,0.02631578947368418
131,771.7100078802205,0.019736842105263164
132,771.7100078802205,0.02631578947368418
133,774.507486209614,0.019736842105263164
134,774.507486209614,0.02631578947368418
135,777.304964539007,0.02631578947368418
136,780.1024428684004,0.019736842105263164
137,780.1024428684004,0.02631578947368418
138,782.8999211977934,0.019736842105263164
139,782.8999211977934,0.02631578947368418
140,785.6973995271869,0.02631578947368418
141,788.4948778565799,0.02631578947368418
142,791.2923561859734,0.02631578947368418
143,794.0898345153664,0.02631578947368418
144,796.8873128447594,0.02631578947368418
145,799.6847911741529,0.02631578947368418
146,802.4822695035459,0.02631578947368418
147,802.4822695035459,0.03289473684210531
148,805.2797478329394,0.03289473684210531
149,808.0772261623324,0.03289473684210531
150,810.8747044917259,0.03289473684210531
151,810.8747044917259,0.03947368421052633
152,813.6721828211189,0.03947368421052633
153,816.4696611505124,0.03947368421052633
154,816.4696611505124,0.046052631578947345
155,819.2671394799054,0.046052631578947345
156,822.0646178092989,0.046052631578947345
157,824.8620961386919,0.046052631578947345
158,827.6595744680849,0.046052631578947345
159,830.4570527974784,0.046052631578947345
160,830.4570527974784,0.052631578947368474
161,833.2545311268714,0.052631578947368474
162,836.0520094562648,0.052631578947368474
163,838.8494877856579,0.052631578947368474
164,841.6469661150513,0.052631578947368474
165,844.4444444444443,0.052631578947368474
166,847.2419227738378,0.052631578947368474
167,850.0394011032308,0.052631578947368474
168,850.0394011032308,0.05921052631578949
169,852.8368794326243,0.05921052631578949
170,855.6343577620173,0.05921052631578949
171,858.4318360914103,0.05921052631578949
172,861.2293144208038,0.05921052631578949
173,864.0267927501968,0.05921052631578949
174,866.8242710795903,0.052631578947368474
175,866.8242710795903,0.05921052631578949
176,869.6217494089833,0.052631578947368474
177,872.4192277383768,0.052631578947368474
178,872.4192277383768,0.046052631578947345
179,875.2167060677698,0.046052631578947345
180,875.2167060677698,0.03947368421052633
181,878.0141843971633,0.03947368421052633
182,880.8116627265563,0.03947368421052633
183,883.6091410559497,0.03947368421052633
184,886.4066193853428,0.03947368421052633
185,889.2040977147362,0.03947368421052633
186,892.0015760441293,0.046052631578947345
187,892.0015760441293,0.03947368421052633
188,894.7990543735223,0.046052631578947345
189,894.7990543735223,0.052631578947368474
190,897.5965327029157,0.052631578947368474
191,897.5965327029157,0.06578947368421051
192,897.5965327029157,0.05921052631578949
193,900.3940110323088,0.07236842105263153
194,900.3940110323088,0.06578947368421051
195,903.1914893617022,0.07236842105263153
196,905.9889676910952,0.07236842105263153
197,908.7864460204887,0.07236842105263153
198,911.5839243498817,0.07894736842105265
199,911.5839243498817,0.07236842105263153
200,914.3814026792752,0.07894736842105265
201,914.3814026792752,0.08552631578947367
202,917.1788810086682,0.09210526315789469
203,917.1788810086682,0.08552631578947367
204,919.9763593380617,0.09210526315789469
205,922.7738376674547,0.09210526315789469
206,925.5713159968477,0.09210526315789469
207,928.3687943262412,0.09210526315789469
208,931.1662726556342,0.09210526315789469
209,933.9637509850277,0.09210526315789469
210,936.7612293144207,0.08552631578947367
211,936.7612293144207,0.09210526315789469
212,939.5587076438142,0.08552631578947367
213,942.3561859732072,0.07894736842105265
214,942.3561859732072,0.07236842105263153
215,942.3561859732072,0.08552631578947367
216,945.1536643026006,0.06578947368421051
217,945.1536643026006,0.07236842105263153
218,947.9511426319937,0.06578947368421051
219,947.9511426319937,0.05921052631578949
220,950.7486209613871,0.05921052631578949
221,953.5460992907801,0.05921052631578949
222,956.3435776201732,0.05921052631578949
223,959.1410559495666,0.05921052631578949
224,961.9385342789597,0.05921052631578949
225,964.7360126083531,0.052631578947368474
226,964.7360126083531,0.05921052631578949
227,967.5334909377461,0.052631578947368474
228,970.3309692671396,0.052631578947368474
229,973.1284475965326,0.052631578947368474
230,975.9259259259261,0.052631578947368474
231,978.7234042553191,0.052631578947368474
232,981.5208825847126,0.052631578947368474
233,981.5208825847126,0.05921052631578949
234,984.3183609141056,0.05921052631578949
235,987.1158392434986,0.05921052631578949
236,989.9133175728921,0.05921052631578949
237,992.7107959022851,0.05921052631578949
238,992.7107959022851,0.06578947368421051
239,995.5082742316786,0.06578947368421051
240,998.3057525610716,0.07236842105263153
241,998.3057525610716,0.07894736842105265
242,998.3057525610716,0.06578947368421051
243,1001.103230890465,0.08552631578947367
244,1001.103230890465,0.07894736842105265
245,1003.9007092198581,0.08552631578947367
246,1003.9007092198581,0.09868421052631582
247,1003.9007092198581,0.09210526315789469
248,1006.6981875492515,0.10526315789473684
249,1006.6981875492515,0.09868421052631582
250,1009.4956658786446,0.10526315789473684
251,1012.293144208038,0.10526315789473684
252,1015.090622537431,0.09868421052631582
253,1015.090622537431,0.10526315789473684
254,1017.8881008668241,0.09868421052631582
255,1017.8881008668241,0.09210526315789469
256,1020.6855791962175,0.09210526315789469
257,1023.4830575256105,0.09210526315789469
258,1026.280535855004,0.09210526315789469
259,1029.078014184397,0.09210526315789469
260,1031.8754925137905,0.09868421052631582
261,1031.8754925137905,0.09210526315789469
262,1034.6729708431835,0.11184210526315785
263,1034.6729708431835,0.09868421052631582
264,1034.6729708431835,0.10526315789473684
265,1037.470449172577,0.11842105263157898
266,1037.470449172577,0.11184210526315785
267,1040.26792750197,0.125
268,1040.26792750197,0.13157894736842102
269,1040.26792750197,0.11842105263157898
270,1043.0654058313635,0.13815789473684215
271,1043.0654058313635,0.13157894736842102
272,1043.0654058313635,0.14473684210526316
273,1045.8628841607565,0.15131578947368418
274,1045.8628841607565,0.14473684210526316
275,1048.6603624901495,0.16447368421052633
276,1048.6603624901495,0.1578947368421053
277,1048.6603624901495,0.15131578947368418
278,1051.457840819543,0.17105263157894735
279,1051.457840819543,0.16447368421052633
280,1054.255319148936,0.1907894736842105
281,1054.255319148936,0.1842105263157895
282,1054.255319148936,0.17763157894736847
283,1054.255319148936,0.17105263157894735
284,1057.0527974783295,0.19736842105263153
285,1057.0527974783295,0.1907894736842105
286,1059.8502758077225,0.19736842105263153
287,1059.8502758077225,0.20394736842105265
288,1059.8502758077225,0.21052631578947367
289,1062.647754137116,0.2171052631578947
290,1062.647754137116,0.21052631578947367
291,1065.445232466509,0.23684210526315785
292,1065.445232466509,0.23026315789473684
293,1065.445232466509,0.22368421052631582
294,1065.445232466509,0.2171052631578947
295,1065.445232466509,0.24342105263157898
296,1068.2427107959024,0.25
297,1068.2427107959024,0.24342105263157898
298,1068.2427107959024,0.256578947368421
299,1071.0401891252955,0.256578947368421
300,1071.0401891252955,0.26315789473684215
301,1071.0401891252955,0.26973684210526316
302,1073.837667454689,0.3092105263157895
303,1073.837667454689,0.3026315789473685
304,1073.837667454689,0.2894736842105263
305,1073.837667454689,0.26973684210526316
306,1073.837667454689,0.2763157894736842
307,1073.837667454689,0.2828947368421053
308,1073.837667454689,0.29605263157894735
309,1076.635145784082,0.3092105263157895
310,1076.635145784082,0.3157894736842105
311,1076.635145784082,0.32894736842105265
312,1076.635145784082,0.3223684210526315
313,1079.432624113475,0.36184210526315785
314,1079.432624113475,0.3355263157894737
315,1079.432624113475,0.35526315789473684
316,1079.432624113475,0.32894736842105265
317,1079.432624113475,0.368421052631579
318,1079.432624113475,0.3421052631578947
319,1079.432624113475,0.375
320,1079.432624113475,0.3486842105263158
321,1082.2301024428684,0.381578947368421
322,1082.2301024428684,0.375
323,1082.2301024428684,0.39473684210526316
324,1082.2301024428684,0.38815789473684215
325,1085.0275807722614,0.4276315789473685
326,1085.0275807722614,0.42105263157894735
327,1085.0275807722614,0.4407894736842105
328,1085.0275807722614,0.4144736842105263
329,1085.0275807722614,0.39473684210526316
330,1085.0275807722614,0.4078947368421053
331,1085.0275807722614,0.4342105263157895
332,1085.0275807722614,0.4013157894736842
333,1087.825059101655,0.4473684210526315
334,1087.825059101655,0.45394736842105265
335,1087.825059101655,0.4407894736842105
336,1087.825059101655,0.4605263157894737
337,1090.622537431048,0.4605263157894737
338,1090.622537431048,0.4736842105263158
339,1090.622537431048,0.5
340,1090.622537431048,0.506578947368421
341,1090.622537431048,0.48026315789473684
342,1090.622537431048,0.493421052631579
343,1090.622537431048,0.48684210526315785
344,1090.622537431048,0.4671052631578947
345,1093.4200157604414,0.5263157894736843
346,1093.4200157604414,0.513157894736842
347,1093.4200157604414,0.506578947368421
348,1093.4200157604414,0.5197368421052632
349,1096.2174940898344,0.5328947368421053
350,1096.2174940898344,0.5263157894736843
351,1096.2174940898344,0.5460526315789473
352,1096.2174940898344,0.5526315789473684
353,1096.2174940898344,0.5592105263157895
354,1096.2174940898344,0.5394736842105263
355,1096.2174940898344,0.5657894736842105
356,1099.014972419228,0.5723684210526316
357,1099.014972419228,0.5789473684210527
358,1099.014972419228,0.5657894736842105
359,1101.812450748621,0.5921052631578947
360,1101.812450748621,0.5855263157894737
361,1101.812450748621,0.5789473684210527
362,1104.6099290780144,0.6052631578947368
363,1104.6099290780144,0.5921052631578947
364,1104.6099290780144,0.5986842105263157
365,1107.4074074074074,0.611842105263158
366,1107.4074074074074,0.6052631578947368
367,1110.2048857368004,0.5986842105263157
368,1110.2048857368004,0.611842105263158
369,1110.2048857368004,0.6052631578947368
370,1110.2048857368004,0.5921052631578947
371,1113.0023640661939,0.5855263157894737
372,1113.0023640661939,0.5921052631578947
373,1113.0023640661939,0.5789473684210527
374,1115.799842395587,0.5394736842105263
375,1115.799842395587,0.5460526315789473
376,1115.799842395587,0.5657894736842105
377,1115.799842395587,0.5723684210526316
378,1115.799842395587,0.5789473684210527
379,1115.799842395587,0.5526315789473684
380,1115.799842395587,0.5592105263157895
381,1118.5973207249804,0.5197368421052632
382,1118.5973207249804,0.5263157894736843
383,1118.5973207249804,0.5394736842105263
384,1118.5973207249804,0.5328947368421053
385,1118.5973207249804,0.513157894736842
386,1121.3947990543734,0.5
387,1121.3947990543734,0.493421052631579
388,1121.3947990543734,0.513157894736842
389,1121.3947990543734,0.48684210526315785
390,1121.3947990543734,0.506578947368421
391,1121.3947990543734,0.48026315789473684
392,1124.1922773837669,0.48026315789473684
393,1124.1922773837669,0.4671052631578947
394,1124.1922773837669,0.4736842105263158
395,1126.9897557131599,0.45394736842105265
396,1126.9897557131599,0.4671052631578947
397,1126.9897557131599,0.4605263157894737
398,1129.7872340425533,0.4473684210526315
399,1129.7872340425533,0.4276315789473685
400,1129.7872340425533,0.4342105263157895
401,1129.7872340425533,0.45394736842105265
402,1129.7872340425533,0.4407894736842105
403,1132.5847123719464,0.4276315789473685
404,1132.5847123719464,0.42105263157894735
405,1135.3821907013398,0.42105263157894735
406,1135.3821907013398,0.4144736842105263
407,1135.3821907013398,0.4013157894736842
408,1135.3821907013398,0.4078947368421053
409,1135.3821907013398,0.39473684210526316
410,1138.1796690307328,0.38815789473684215
411,1138.1796690307328,0.39473684210526316
412,1140.9771473601263,0.375
413,1140.9771473601263,0.381578947368421
414,1140.9771473601263,0.368421052631579
415,1140.9771473601263,0.38815789473684215
416,1143.7746256895193,0.36184210526315785
417,1143.7746256895193,0.368421052631579
418,1146.5721040189123,0.35526315789473684
419,1146.5721040189123,0.36184210526315785
420,1146.5721040189123,0.3486842105263158
421,1146.5721040189123,0.3421052631578947
422,1149.3695823483058,0.3355263157894737
423,1149.3695823483058,0.32894736842105265
424,1149.3695823483058,0.3421052631578947
425,1152.1670606776988,0.3223684210526315
426,1152.1670606776988,0.32894736842105265
427,1152.1670606776988,0.3026315789473685
428,1152.1670606776988,0.3157894736842105
429,1152.1670606776988,0.29605263157894735
430,1152.1670606776988,0.3092105263157895
431,1154.9645390070923,0.29605263157894735
432,1154.9645390070923,0.2828947368421053
433,1154.9645390070923,0.2894736842105263
434,1157.7620173364853,0.2828947368421053
435,1157.7620173364853,0.2763157894736842
436,1157.7620173364853,0.26973684210526316
437,1160.5594956658788,0.26973684210526316
438,1160.5594956658788,0.26315789473684215
439,1160.5594956658788,0.256578947368421
440,1160.5594956658788,0.25
441,1163.3569739952718,0.25
442,1163.3569739952718,0.24342105263157898
443,1163.3569739952718,0.23684210526315785
444,1166.1544523246653,0.2171052631578947
445,1166.1544523246653,0.23684210526315785
446,1166.1544523246653,0.22368421052631582
447,1166.1544523246653,0.23026315789473684
448,1168.9519306540583,0.20394736842105265
449,1168.9519306540583,0.2171052631578947
450,1168.9519306540583,0.21052631578947367
451,1171.7494089834518,0.1907894736842105
452,1171.7494089834518,0.20394736842105265
453,1171.7494089834518,0.19736842105263153
454,1171.7494089834518,0.1842105263157895
455,1174.5468873128448,0.1842105263157895
456,1174.5468873128448,0.17105263157894735
457,1174.5468873128448,0.17763157894736847
458,1177.3443656422378,0.1578947368421053
459,1177.3443656422378,0.16447368421052633
460,1177.3443656422378,0.17105263157894735
461,1177.3443656422378,0.15131578947368418
462,1180.1418439716313,0.14473684210526316
463,1180.1418439716313,0.15131578947368418
464,1180.1418439716313,0.13815789473684215
465,1182.9393223010243,0.13815789473684215
466,1182.9393223010243,0.13157894736842102
