,wavenumbers,absorbance
0,452.797478329393,0.019736842105263164
1,455.5949566587865,0.019736842105263164
2,458.3924349881795,0.019736842105263164
3,461.189913317573,0.019736842105263164
4,463.987391646966,0.019736842105263164
5,466.78486997635946,0.019736842105263164
6,469.5823483057525,0.019736842105263164
7,472.37982663514595,0.019736842105263164
8,475.17730496453896,0.019736842105263164
9,477.97478329393243,0.019736842105263164
10,480.77226162332545,0.019736842105263164
11,483.56973995271846,0.019736842105263164
12,486.36721828211193,0.019736842105263164
13,489.16469661150495,0.019736842105263164
14,489.16469661150495,0.02631578947368418
15,491.9621749408984,0.02631578947368418
16,494.75965327029144,0.02631578947368418
17,494.75965327029144,0.03289473684210531
18,497.5571315996849,0.03289473684210531
19,500.3546099290779,0.03289473684210531
20,503.1520882584714,0.03289473684210531
21,505.9495665878644,0.03289473684210531
22,508.7470449172579,0.03289473684210531
23,511.5445232466509,0.03289473684210531
24,514.3420015760439,0.03289473684210531
25,514.3420015760439,0.03947368421052633
26,517.1394799054374,0.03947368421052633
27,519.9369582348304,0.03947368421052633
28,522.7344365642239,0.03947368421052633
29,525.5319148936169,0.03947368421052633
30,528.3293932230104,0.03947368421052633
31,531.1268715524034,0.03947368421052633
32,533.9243498817968,0.03947368421052633
33,536.7218282111899,0.03947368421052633
34,539.5193065405833,0.046052631578947345
35,539.5193065405833,0.03947368421052633
36,542.3167848699763,0.046052631578947345
37,545.1142631993694,0.046052631578947345
38,547.9117415287628,0.046052631578947345
39,547.9117415287628,0.052631578947368474
40,550.7092198581558,0.052631578947368474
41,553.5066981875493,0.052631578947368474
42,556.3041765169423,0.052631578947368474
43,559.1016548463358,0.052631578947368474
44,561.8991331757288,0.052631578947368474
45,564.6966115051223,0.052631578947368474
46,564.6966115051223,0.05921052631578949
47,567.4940898345153,0.05921052631578949
48,570.2915681639088,0.05921052631578949
49,573.0890464933018,0.05921052631578949
50,575.8865248226948,0.05921052631578949
51,578.6840031520883,0.05921052631578949
52,581.4814814814813,0.05921052631578949
53,584.2789598108748,0.05921052631578949
54,587.0764381402678,0.05921052631578949
55,587.0764381402678,0.052631578947368474
56,589.8739164696613,0.052631578947368474
57,592.6713947990543,0.052631578947368474
58,595.4688731284477,0.052631578947368474
59,598.2663514578408,0.052631578947368474
60,601.0638297872342,0.052631578947368474
61,603.8613081166272,0.052631578947368474
62,606.6587864460207,0.052631578947368474
63,609.4562647754137,0.052631578947368474
64,609.4562647754137,0.05921052631578949
65,612.2537431048067,0.05921052631578949
66,615.0512214342002,0.05921052631578949
67,617.8486997635932,0.05921052631578949
68,620.6461780929867,0.05921052631578949
69,623.4436564223797,0.05921052631578949
70,626.2411347517732,0.05921052631578949
71,629.0386130811662,0.05921052631578949
72,631.8360914105597,0.06578947368421051
73,631.8360914105597,0.05921052631578949
74,634.6335697399527,0.06578947368421051
75,637.4310480693462,0.06578947368421051
76,640.2285263987392,0.06578947368421051
77,643.0260047281322,0.06578947368421051
78,645.8234830575257,0.06578947368421051
79,648.6209613869187,0.06578947368421051
80,651.4184397163122,0.07236842105263153
81,651.4184397163122,0.06578947368421051
82,654.2159180457052,0.07236842105263153
83,657.0133963750986,0.07236842105263153
84,657.0133963750986,0.07894736842105265
85,659.8108747044917,0.07894736842105265
86,662.6083530338851,0.07894736842105265
87,665.4058313632781,0.07894736842105265
88,668.2033096926716,0.07894736842105265
89,671.0007880220646,0.07894736842105265
90,673.7982663514576,0.07894736842105265
91,676.5957446808511,0.08552631578947367
92,676.5957446808511,0.07894736842105265
93,679.3932230102441,0.08552631578947367
94,682.1907013396376,0.08552631578947367
95,684.9881796690306,0.08552631578947367
96,687.7856579984241,0.08552631578947367
97,690.5831363278171,0.07894736842105265
98,690.5831363278171,0.08552631578947367
99,693.3806146572106,0.07894736842105265
100,696.1780929866036,0.07894736842105265
101,698.9755713159971,0.07894736842105265
102,701.7730496453901,0.07894736842105265
103,704.5705279747831,0.07894736842105265
104,707.3680063041766,0.07894736842105265
105,707.3680063041766,0.07236842105263153
106,710.1654846335696,0.07236842105263153
107,712.962962962963,0.07236842105263153
108,712.962962962963,0.06578947368421051
109,715.7604412923561,0.06578947368421051
110,718.5579196217495,0.06578947368421051
111,721.3553979511425,0.06578947368421051
112,724.152876280536,0.07236842105263153
113,724.152876280536,0.06578947368421051
114,726.950354609929,0.07236842105263153
115,729.7478329393225,0.07236842105263153
116,729.7478329393225,0.07894736842105265
117,732.5453112687155,0.07894736842105265
118,732.5453112687155,0.08552631578947367
119,735.3427895981085,0.08552631578947367
120,738.140267927502,0.08552631578947367
121,738.140267927502,0.09210526315789469
122,740.937746256895,0.09210526315789469
123,743.7352245862885,0.09210526315789469
124,743.7352245862885,0.09868421052631582
125,746.5327029156815,0.10526315789473684
126,746.5327029156815,0.09868421052631582
127,749.330181245075,0.11184210526315785
128,749.330181245075,0.10526315789473684
129,752.127659574468,0.11184210526315785
130,754.9251379038615,0.11184210526315785
131,754.9251379038615,0.10526315789473684
132,757.7226162332545,0.09868421052631582
133,757.7226162332545,0.10526315789473684
134,760.520094562648,0.09868421052631582
135,760.520094562648,0.10526315789473684
136,763.317572892041,0.11184210526315785
137,763.317572892041,0.10526315789473684
138,766.115051221434,0.11842105263157898
139,766.115051221434,0.11184210526315785
140,768.9125295508275,0.13815789473684215
141,768.9125295508275,0.11842105263157898
142,768.9125295508275,0.13157894736842102
143,768.9125295508275,0.125
144,771.7100078802205,0.14473684210526316
145,771.7100078802205,0.13815789473684215
146,774.507486209614,0.14473684210526316
147,774.507486209614,0.15131578947368418
148,774.507486209614,0.1578947368421053
149,777.304964539007,0.1578947368421053
150,780.1024428684004,0.17105263157894735
151,780.1024428684004,0.1578947368421053
152,780.1024428684004,0.16447368421052633
153,780.1024428684004,0.17763157894736847
154,780.1024428684004,0.1842105263157895
155,782.8999211977934,0.1907894736842105
156,782.8999211977934,0.1842105263157895
157,782.8999211977934,0.19736842105263153
158,785.6973995271869,0.21052631578947367
159,785.6973995271869,0.2171052631578947
160,785.6973995271869,0.22368421052631582
161,785.6973995271869,0.19736842105263153
162,785.6973995271869,0.20394736842105265
163,788.4948778565799,0.22368421052631582
164,788.4948778565799,0.2763157894736842
165,788.4948778565799,0.26973684210526316
166,788.4948778565799,0.26315789473684215
167,788.4948778565799,0.25
168,788.4948778565799,0.24342105263157898
169,788.4948778565799,0.256578947368421
170,788.4948778565799,0.23026315789473684
171,788.4948778565799,0.23684210526315785
172,791.2923561859734,0.2894736842105263
173,791.2923561859734,0.29605263157894735
174,791.2923561859734,0.3026315789473685
175,791.2923561859734,0.2763157894736842
176,791.2923561859734,0.2828947368421053
177,794.0898345153664,0.3157894736842105
178,794.0898345153664,0.3355263157894737
179,794.0898345153664,0.3223684210526315
180,794.0898345153664,0.3092105263157895
181,794.0898345153664,0.3421052631578947
182,794.0898345153664,0.3026315789473685
183,794.0898345153664,0.3486842105263158
184,794.0898345153664,0.32894736842105265
185,796.8873128447594,0.36184210526315785
186,796.8873128447594,0.35526315789473684
187,796.8873128447594,0.3486842105263158
188,799.6847911741529,0.36184210526315785
189,799.6847911741529,0.368421052631579
190,802.4822695035459,0.368421052631579
191,802.4822695035459,0.36184210526315785
192,805.2797478329394,0.35526315789473684
193,805.2797478329394,0.3486842105263158
194,805.2797478329394,0.3355263157894737
195,805.2797478329394,0.32894736842105265
196,805.2797478329394,0.36184210526315785
197,805.2797478329394,0.3421052631578947
198,808.0772261623324,0.32894736842105265
199,808.0772261623324,0.3092105263157895
200,808.0772261623324,0.3157894736842105
201,808.0772261623324,0.3223684210526315
202,810.8747044917259,0.3092105263157895
203,810.8747044917259,0.3026315789473685
204,810.8747044917259,0.2828947368421053
205,810.8747044917259,0.2894736842105263
206,810.8747044917259,0.29605263157894735
207,813.6721828211189,0.26973684210526316
208,813.6721828211189,0.2828947368421053
209,813.6721828211189,0.2763157894736842
210,816.4696611505124,0.26973684210526316
211,816.4696611505124,0.256578947368421
212,816.4696611505124,0.25
213,816.4696611505124,0.26315789473684215
214,819.2671394799054,0.22368421052631582
215,819.2671394799054,0.24342105263157898
216,819.2671394799054,0.23684210526315785
217,819.2671394799054,0.2171052631578947
218,819.2671394799054,0.21052631578947367
219,819.2671394799054,0.25
220,819.2671394799054,0.23026315789473684
221,822.0646178092989,0.21052631578947367
222,822.0646178092989,0.19736842105263153
223,822.0646178092989,0.20394736842105265
224,824.8620961386919,0.1907894736842105
225,824.8620961386919,0.1842105263157895
226,824.8620961386919,0.19736842105263153
227,827.6595744680849,0.1842105263157895
228,830.4570527974784,0.19736842105263153
229,830.4570527974784,0.1907894736842105
230,830.4570527974784,0.1842105263157895
231,833.2545311268714,0.21052631578947367
232,833.2545311268714,0.20394736842105265
233,833.2545311268714,0.19736842105263153
234,836.0520094562648,0.23026315789473684
235,836.0520094562648,0.2171052631578947
236,836.0520094562648,0.21052631578947367
237,836.0520094562648,0.22368421052631582
238,836.0520094562648,0.23684210526315785
239,838.8494877856579,0.23684210526315785
240,841.6469661150513,0.21052631578947367
241,841.6469661150513,0.23026315789473684
242,841.6469661150513,0.2171052631578947
243,841.6469661150513,0.22368421052631582
244,841.6469661150513,0.23684210526315785
245,844.4444444444443,0.19736842105263153
246,844.4444444444443,0.21052631578947367
247,844.4444444444443,0.20394736842105265
248,847.2419227738378,0.19736842105263153
249,847.2419227738378,0.1907894736842105
250,847.2419227738378,0.1842105263157895
251,850.0394011032308,0.1842105263157895
252,850.0394011032308,0.17105263157894735
253,850.0394011032308,0.17763157894736847
254,852.8368794326243,0.16447368421052633
255,852.8368794326243,0.17105263157894735
256,855.6343577620173,0.1578947368421053
257,855.6343577620173,0.16447368421052633
258,858.4318360914103,0.1578947368421053
259,858.4318360914103,0.15131578947368418
260,861.2293144208038,0.15131578947368418
261,864.0267927501968,0.15131578947368418
262,864.0267927501968,0.14473684210526316
263,866.8242710795903,0.13815789473684215
264,866.8242710795903,0.14473684210526316
265,869.6217494089833,0.13157894736842102
266,869.6217494089833,0.13815789473684215
267,872.4192277383768,0.13157894736842102
268,872.4192277383768,0.11842105263157898
269,872.4192277383768,0.125
270,875.2167060677698,0.10526315789473684
271,875.2167060677698,0.11842105263157898
272,875.2167060677698,0.11184210526315785
273,878.0141843971633,0.10526315789473684
274,878.0141843971633,0.09868421052631582
275,880.8116627265563,0.09210526315789469
276,880.8116627265563,0.09868421052631582
277,883.6091410559497,0.09210526315789469
278,886.4066193853428,0.09210526315789469
279,886.4066193853428,0.08552631578947367
280,889.2040977147362,0.09210526315789469
281,892.0015760441293,0.09868421052631582
282,892.0015760441293,0.09210526315789469
283,894.7990543735223,0.11184210526315785
284,894.7990543735223,0.10526315789473684
285,894.7990543735223,0.09868421052631582
286,897.5965327029157,0.11184210526315785
287,897.5965327029157,0.11842105263157898
288,897.5965327029157,0.125
289,900.3940110323088,0.13157894736842102
290,900.3940110323088,0.125
291,903.1914893617022,0.13157894736842102
292,905.9889676910952,0.13815789473684215
293,905.9889676910952,0.13157894736842102
294,908.7864460204887,0.13815789473684215
295,911.5839243498817,0.13815789473684215
296,911.5839243498817,0.14473684210526316
297,914.3814026792752,0.14473684210526316
298,914.3814026792752,0.15131578947368418
299,917.1788810086682,0.1578947368421053
300,917.1788810086682,0.15131578947368418
301,919.9763593380617,0.1578947368421053
302,922.7738376674547,0.1578947368421053
303,925.5713159968477,0.1578947368421053
304,928.3687943262412,0.1578947368421053
305,931.1662726556342,0.15131578947368418
306,931.1662726556342,0.1578947368421053
307,933.9637509850277,0.15131578947368418
308,933.9637509850277,0.14473684210526316
309,936.7612293144207,0.13815789473684215
310,936.7612293144207,0.13157894736842102
311,936.7612293144207,0.14473684210526316
312,936.7612293144207,0.125
313,939.5587076438142,0.11842105263157898
314,939.5587076438142,0.125
315,942.3561859732072,0.11842105263157898
316,942.3561859732072,0.10526315789473684
317,942.3561859732072,0.11184210526315785
318,942.3561859732072,0.09868421052631582
319,945.1536643026006,0.09868421052631582
320,945.1536643026006,0.09210526315789469
321,947.9511426319937,0.09210526315789469
322,947.9511426319937,0.08552631578947367
323,950.7486209613871,0.08552631578947367
324,953.5460992907801,0.08552631578947367
325,956.3435776201732,0.08552631578947367
326,959.1410559495666,0.08552631578947367
327,961.9385342789597,0.08552631578947367
328,964.7360126083531,0.08552631578947367
329,967.5334909377461,0.08552631578947367
330,970.3309692671396,0.08552631578947367
331,973.1284475965326,0.09210526315789469
332,973.1284475965326,0.08552631578947367
333,975.9259259259261,0.09210526315789469
334,975.9259259259261,0.09868421052631582
335,978.7234042553191,0.10526315789473684
336,978.7234042553191,0.09868421052631582
337,981.5208825847126,0.10526315789473684
338,981.5208825847126,0.11184210526315785
339,984.3183609141056,0.11842105263157898
340,984.3183609141056,0.11184210526315785
341,987.1158392434986,0.13157894736842102
342,987.1158392434986,0.125
343,987.1158392434986,0.11842105263157898
344,987.1158392434986,0.13815789473684215
345,989.9133175728921,0.15131578947368418
346,989.9133175728921,0.14473684210526316
347,989.9133175728921,0.13815789473684215
348,992.7107959022851,0.16447368421052633
349,992.7107959022851,0.17105263157894735
350,992.7107959022851,0.17763157894736847
351,992.7107959022851,0.1578947368421053
352,992.7107959022851,0.15131578947368418
353,995.5082742316786,0.19736842105263153
354,995.5082742316786,0.1907894736842105
355,995.5082742316786,0.17763157894736847
356,995.5082742316786,0.1842105263157895
357,998.3057525610716,0.2171052631578947
358,998.3057525610716,0.21052631578947367
359,998.3057525610716,0.23684210526315785
360,998.3057525610716,0.20394736842105265
361,998.3057525610716,0.22368421052631582
362,998.3057525610716,0.23026315789473684
363,998.3057525610716,0.25
364,998.3057525610716,0.24342105263157898
365,998.3057525610716,0.19736842105263153
366,1001.103230890465,0.25
367,1001.103230890465,0.26973684210526316
368,1001.103230890465,0.2828947368421053
369,1001.103230890465,0.26315789473684215
370,1001.103230890465,0.256578947368421
371,1001.103230890465,0.2763157894736842
372,1003.9007092198581,0.32894736842105265
373,1003.9007092198581,0.2894736842105263
374,1003.9007092198581,0.29605263157894735
375,1003.9007092198581,0.3421052631578947
376,1003.9007092198581,0.3223684210526315
377,1003.9007092198581,0.3157894736842105
378,1003.9007092198581,0.3026315789473685
379,1003.9007092198581,0.3092105263157895
380,1003.9007092198581,0.2828947368421053
381,1003.9007092198581,0.3355263157894737
382,1003.9007092198581,0.3486842105263158
383,1006.6981875492515,0.3486842105263158
384,1006.6981875492515,0.36184210526315785
385,1006.6981875492515,0.35526315789473684
386,1006.6981875492515,0.375
387,1006.6981875492515,0.368421052631579
388,1009.4956658786446,0.375
389,1009.4956658786446,0.4078947368421053
390,1009.4956658786446,0.381578947368421
391,1009.4956658786446,0.4013157894736842
392,1009.4956658786446,0.39473684210526316
393,1009.4956658786446,0.38815789473684215
394,1012.293144208038,0.4078947368421053
395,1012.293144208038,0.4144736842105263
396,1015.090622537431,0.4144736842105263
397,1017.8881008668241,0.4144736842105263
398,1017.8881008668241,0.4078947368421053
399,1020.6855791962175,0.4078947368421053
400,1020.6855791962175,0.4013157894736842
401,1023.4830575256105,0.38815789473684215
402,1023.4830575256105,0.39473684210526316
403,1023.4830575256105,0.4013157894736842
404,1026.280535855004,0.381578947368421
405,1026.280535855004,0.38815789473684215
406,1029.078014184397,0.375
407,1029.078014184397,0.381578947368421
408,1031.8754925137905,0.375
409,1031.8754925137905,0.368421052631579
410,1034.6729708431835,0.368421052631579
411,1034.6729708431835,0.375
412,1037.470449172577,0.375
413,1040.26792750197,0.375
414,1040.26792750197,0.381578947368421
415,1040.26792750197,0.39473684210526316
416,1040.26792750197,0.38815789473684215
417,1043.0654058313635,0.39473684210526316
418,1043.0654058313635,0.4078947368421053
419,1043.0654058313635,0.4013157894736842
420,1045.8628841607565,0.4144736842105263
421,1045.8628841607565,0.42105263157894735
422,1045.8628841607565,0.4078947368421053
423,1048.6603624901495,0.4342105263157895
424,1048.6603624901495,0.4473684210526315
425,1048.6603624901495,0.42105263157894735
426,1048.6603624901495,0.4276315789473685
427,1048.6603624901495,0.4407894736842105
428,1051.457840819543,0.45394736842105265
429,1051.457840819543,0.4473684210526315
430,1051.457840819543,0.4605263157894737
431,1054.255319148936,0.48026315789473684
432,1054.255319148936,0.4736842105263158
433,1054.255319148936,0.4671052631578947
434,1054.255319148936,0.4605263157894737
435,1057.0527974783295,0.493421052631579
436,1057.0527974783295,0.48026315789473684
437,1057.0527974783295,0.48684210526315785
438,1059.8502758077225,0.493421052631579
439,1059.8502758077225,0.5197368421052632
440,1059.8502758077225,0.5
441,1059.8502758077225,0.506578947368421
442,1059.8502758077225,0.513157894736842
443,1062.647754137116,0.5328947368421053
444,1062.647754137116,0.5263157894736843
445,1062.647754137116,0.5197368421052632
446,1062.647754137116,0.5394736842105263
447,1065.445232466509,0.5657894736842105
448,1065.445232466509,0.5592105263157895
449,1065.445232466509,0.5526315789473684
450,1065.445232466509,0.5723684210526316
451,1065.445232466509,0.5460526315789473
452,1065.445232466509,0.5394736842105263
453,1068.2427107959024,0.5921052631578947
454,1068.2427107959024,0.5723684210526316
455,1068.2427107959024,0.5789473684210527
456,1068.2427107959024,0.5855263157894737
457,1071.0401891252955,0.5921052631578947
458,1071.0401891252955,0.5986842105263157
459,1071.0401891252955,0.6052631578947368
460,1071.0401891252955,0.611842105263158
461,1071.0401891252955,0.618421052631579
462,1073.837667454689,0.6644736842105263
463,1073.837667454689,0.6578947368421053
464,1073.837667454689,0.6513157894736843
465,1073.837667454689,0.6710526315789473
466,1073.837667454689,0.6447368421052632
467,1073.837667454689,0.618421052631579
468,1073.837667454689,0.638157894736842
469,1073.837667454689,0.631578947368421
470,1073.837667454689,0.625
471,1076.635145784082,0.6973684210526316
472,1076.635145784082,0.6842105263157895
473,1076.635145784082,0.6710526315789473
474,1076.635145784082,0.6776315789473684
475,1076.635145784082,0.7039473684210527
