,wavenumbers,absorbance
0,452.797478329393,0.02631578947368418
1,455.5949566587865,0.02631578947368418
2,458.3924349881795,0.02631578947368418
3,461.189913317573,0.02631578947368418
4,463.987391646966,0.02631578947368418
5,463.987391646966,0.03289473684210531
6,466.78486997635946,0.03289473684210531
7,469.5823483057525,0.03289473684210531
8,472.37982663514595,0.03289473684210531
9,475.17730496453896,0.03289473684210531
10,477.97478329393243,0.03289473684210531
11,480.77226162332545,0.03289473684210531
12,480.77226162332545,0.02631578947368418
13,483.56973995271846,0.02631578947368418
14,486.36721828211193,0.02631578947368418
15,489.16469661150495,0.02631578947368418
16,491.9621749408984,0.02631578947368418
17,494.75965327029144,0.02631578947368418
18,494.75965327029144,0.019736842105263164
19,497.5571315996849,0.019736842105263164
20,500.3546099290779,0.019736842105263164
21,503.1520882584714,0.019736842105263164
22,505.9495665878644,0.019736842105263164
23,508.7470449172579,0.019736842105263164
24,511.5445232466509,0.019736842105263164
25,514.3420015760439,0.019736842105263164
26,517.1394799054374,0.019736842105263164
27,519.9369582348304,0.019736842105263164
28,522.7344365642239,0.019736842105263164
29,525.5319148936169,0.019736842105263164
30,528.3293932230104,0.019736842105263164
31,531.1268715524034,0.019736842105263164
32,533.9243498817968,0.019736842105263164
33,536.7218282111899,0.019736842105263164
34,539.5193065405833,0.019736842105263164
35,542.3167848699763,0.019736842105263164
36,545.1142631993694,0.019736842105263164
37,547.9117415287628,0.019736842105263164
38,550.7092198581558,0.019736842105263164
39,553.5066981875493,0.019736842105263164
40,556.3041765169423,0.019736842105263164
41,559.1016548463358,0.019736842105263164
42,561.8991331757288,0.019736842105263164
43,564.6966115051223,0.019736842105263164
44,567.4940898345153,0.019736842105263164
45,570.2915681639088,0.019736842105263164
46,573.0890464933018,0.019736842105263164
47,575.8865248226948,0.019736842105263164
48,578.6840031520883,0.019736842105263164
49,581.4814814814813,0.019736842105263164
50,584.2789598108748,0.019736842105263164
51,587.0764381402678,0.019736842105263164
52,589.8739164696613,0.019736842105263164
53,592.6713947990543,0.019736842105263164
54,595.4688731284477,0.019736842105263164
55,598.2663514578408,0.019736842105263164
56,601.0638297872342,0.019736842105263164
57,603.8613081166272,0.019736842105263164
58,606.6587864460207,0.019736842105263164
59,609.4562647754137,0.019736842105263164
60,612.2537431048067,0.019736842105263164
61,615.0512214342002,0.019736842105263164
62,617.8486997635932,0.019736842105263164
63,620.6461780929867,0.019736842105263164
64,623.4436564223797,0.019736842105263164
65,626.2411347517732,0.019736842105263164
66,629.0386130811662,0.019736842105263164
67,631.8360914105597,0.019736842105263164
68,634.6335697399527,0.019736842105263164
69,637.4310480693462,0.019736842105263164
70,637.4310480693462,0.02631578947368418
71,640.2285263987392,0.02631578947368418
72,643.0260047281322,0.02631578947368418
73,645.8234830575257,0.02631578947368418
74,648.6209613869187,0.02631578947368418
75,651.4184397163122,0.03289473684210531
76,651.4184397163122,0.02631578947368418
77,654.2159180457052,0.03947368421052633
78,654.2159180457052,0.03289473684210531
79,657.0133963750986,0.046052631578947345
80,657.0133963750986,0.03947368421052633
81,657.0133963750986,0.052631578947368474
82,659.8108747044917,0.052631578947368474
83,662.6083530338851,0.052631578947368474
84,665.4058313632781,0.052631578947368474
85,668.2033096926716,0.052631578947368474
86,671.0007880220646,0.052631578947368474
87,673.7982663514576,0.05921052631578949
88,673.7982663514576,0.052631578947368474
89,676.5957446808511,0.05921052631578949
90,676.5957446808511,0.06578947368421051
91,679.3932230102441,0.07236842105263153
92,679.3932230102441,0.06578947368421051
93,682.1907013396376,0.07236842105263153
94,684.9881796690306,0.07236842105263153
95,687.7856579984241,0.07236842105263153
96,690.5831363278171,0.07236842105263153
97,693.3806146572106,0.07236842105263153
98,696.1780929866036,0.07236842105263153
99,698.9755713159971,0.07236842105263153
100,701.7730496453901,0.07236842105263153
101,701.7730496453901,0.06578947368421051
102,704.5705279747831,0.06578947368421051
103,704.5705279747831,0.05921052631578949
104,707.3680063041766,0.046052631578947345
105,707.3680063041766,0.052631578947368474
106,707.3680063041766,0.05921052631578949
107,710.1654846335696,0.03947368421052633
108,710.1654846335696,0.046052631578947345
109,712.962962962963,0.03289473684210531
110,712.962962962963,0.03947368421052633
111,715.7604412923561,0.03289473684210531
112,718.5579196217495,0.03289473684210531
113,721.3553979511425,0.03289473684210531
114,724.152876280536,0.03289473684210531
115,726.950354609929,0.03289473684210531
116,729.7478329393225,0.03289473684210531
117,729.7478329393225,0.03947368421052633
118,732.5453112687155,0.03947368421052633
119,735.3427895981085,0.03947368421052633
120,738.140267927502,0.03947368421052633
121,738.140267927502,0.046052631578947345
122,740.937746256895,0.052631578947368474
123,740.937746256895,0.046052631578947345
124,743.7352245862885,0.05921052631578949
125,743.7352245862885,0.052631578947368474
126,743.7352245862885,0.06578947368421051
127,746.5327029156815,0.07236842105263153
128,746.5327029156815,0.06578947368421051
129,746.5327029156815,0.07894736842105265
130,749.330181245075,0.07894736842105265
131,749.330181245075,0.08552631578947367
132,752.127659574468,0.08552631578947367
133,752.127659574468,0.07894736842105265
134,754.9251379038615,0.07894736842105265
135,754.9251379038615,0.07236842105263153
136,754.9251379038615,0.06578947368421051
137,757.7226162332545,0.06578947368421051
138,760.520094562648,0.06578947368421051
139,763.317572892041,0.06578947368421051
140,763.317572892041,0.07894736842105265
141,763.317572892041,0.07236842105263153
142,766.115051221434,0.07894736842105265
143,766.115051221434,0.08552631578947367
144,768.9125295508275,0.11184210526315785
145,768.9125295508275,0.08552631578947367
146,768.9125295508275,0.09210526315789469
147,768.9125295508275,0.09868421052631582
148,768.9125295508275,0.10526315789473684
149,771.7100078802205,0.11842105263157898
150,771.7100078802205,0.125
151,771.7100078802205,0.11184210526315785
152,774.507486209614,0.13157894736842102
153,774.507486209614,0.15131578947368418
154,774.507486209614,0.13815789473684215
155,774.507486209614,0.16447368421052633
156,774.507486209614,0.14473684210526316
157,774.507486209614,0.125
158,774.507486209614,0.1578947368421053
159,774.507486209614,0.17763157894736847
160,774.507486209614,0.17105263157894735
161,774.507486209614,0.1842105263157895
162,777.304964539007,0.2171052631578947
163,777.304964539007,0.21052631578947367
164,777.304964539007,0.1842105263157895
165,777.304964539007,0.1907894736842105
166,777.304964539007,0.20394736842105265
167,777.304964539007,0.19736842105263153
168,780.1024428684004,0.3026315789473685
169,780.1024428684004,0.3157894736842105
170,780.1024428684004,0.29605263157894735
171,780.1024428684004,0.256578947368421
172,780.1024428684004,0.3223684210526315
173,780.1024428684004,0.26973684210526316
174,780.1024428684004,0.26315789473684215
175,780.1024428684004,0.25
176,780.1024428684004,0.3092105263157895
177,780.1024428684004,0.2763157894736842
178,780.1024428684004,0.23684210526315785
179,780.1024428684004,0.2894736842105263
180,780.1024428684004,0.2828947368421053
181,780.1024428684004,0.23026315789473684
182,780.1024428684004,0.22368421052631582
183,780.1024428684004,0.2171052631578947
184,780.1024428684004,0.24342105263157898
185,782.8999211977934,0.35526315789473684
186,782.8999211977934,0.3223684210526315
187,782.8999211977934,0.32894736842105265
188,782.8999211977934,0.3355263157894737
189,782.8999211977934,0.36184210526315785
190,782.8999211977934,0.3486842105263158
191,782.8999211977934,0.381578947368421
192,782.8999211977934,0.3421052631578947
193,782.8999211977934,0.39473684210526316
194,782.8999211977934,0.38815789473684215
195,782.8999211977934,0.375
196,782.8999211977934,0.368421052631579
197,785.6973995271869,0.48026315789473684
198,785.6973995271869,0.4736842105263158
199,785.6973995271869,0.4671052631578947
200,785.6973995271869,0.4605263157894737
201,785.6973995271869,0.4144736842105263
202,785.6973995271869,0.39473684210526316
203,785.6973995271869,0.45394736842105265
204,785.6973995271869,0.4473684210526315
205,785.6973995271869,0.4013157894736842
206,785.6973995271869,0.4342105263157895
207,785.6973995271869,0.4407894736842105
208,785.6973995271869,0.42105263157894735
209,785.6973995271869,0.4078947368421053
210,785.6973995271869,0.4276315789473685
211,788.4948778565799,0.5197368421052632
212,788.4948778565799,0.618421052631579
213,788.4948778565799,0.5263157894736843
214,788.4948778565799,0.5921052631578947
215,788.4948778565799,0.611842105263158
216,788.4948778565799,0.5526315789473684
217,788.4948778565799,0.48026315789473684
218,788.4948778565799,0.625
219,788.4948778565799,0.5394736842105263
220,788.4948778565799,0.513157894736842
221,788.4948778565799,0.5855263157894737
222,788.4948778565799,0.6052631578947368
223,788.4948778565799,0.5328947368421053
224,788.4948778565799,0.5657894736842105
225,788.4948778565799,0.638157894736842
226,788.4948778565799,0.5723684210526316
227,788.4948778565799,0.493421052631579
228,788.4948778565799,0.6513157894736843
229,788.4948778565799,0.5789473684210527
230,788.4948778565799,0.631578947368421
231,788.4948778565799,0.506578947368421
232,788.4948778565799,0.5592105263157895
233,788.4948778565799,0.48684210526315785
234,788.4948778565799,0.5986842105263157
235,788.4948778565799,0.5460526315789473
236,788.4948778565799,0.5
237,788.4948778565799,0.6447368421052632
238,791.2923561859734,0.7302631578947368
239,791.2923561859734,0.6578947368421053
240,791.2923561859734,0.6513157894736843
241,791.2923561859734,0.6644736842105263
242,791.2923561859734,0.7236842105263157
243,791.2923561859734,0.7105263157894737
244,791.2923561859734,0.7039473684210527
245,791.2923561859734,0.6973684210526316
246,791.2923561859734,0.7171052631578947
247,791.2923561859734,0.6776315789473684
248,791.2923561859734,0.6907894736842105
249,791.2923561859734,0.6842105263157895
250,791.2923561859734,0.6710526315789473
251,794.0898345153664,0.7302631578947368
252,794.0898345153664,0.8157894736842105
253,794.0898345153664,0.7960526315789473
254,794.0898345153664,0.736842105263158
255,794.0898345153664,0.7631578947368421
256,794.0898345153664,0.8092105263157895
257,794.0898345153664,0.743421052631579
258,794.0898345153664,0.756578947368421
259,794.0898345153664,0.7763157894736842
260,794.0898345153664,0.7697368421052632
261,794.0898345153664,0.7894736842105263
262,794.0898345153664,0.8026315789473684
263,794.0898345153664,0.75
264,794.0898345153664,0.7828947368421053
265,796.8873128447594,0.8223684210526316
266,796.8873128447594,0.8157894736842105
267,799.6847911741529,0.8157894736842105
268,799.6847911741529,0.7894736842105263
269,799.6847911741529,0.7828947368421053
270,799.6847911741529,0.8026315789473684
271,799.6847911741529,0.7960526315789473
272,799.6847911741529,0.8223684210526316
273,799.6847911741529,0.8092105263157895
274,802.4822695035459,0.7763157894736842
275,802.4822695035459,0.7697368421052632
276,802.4822695035459,0.756578947368421
277,802.4822695035459,0.75
278,802.4822695035459,0.7631578947368421
279,802.4822695035459,0.7828947368421053
280,802.4822695035459,0.743421052631579
281,805.2797478329394,0.6578947368421053
282,805.2797478329394,0.6776315789473684
283,805.2797478329394,0.7105263157894737
284,805.2797478329394,0.7039473684210527
285,805.2797478329394,0.6973684210526316
286,805.2797478329394,0.736842105263158
287,805.2797478329394,0.7171052631578947
288,805.2797478329394,0.6513157894736843
289,805.2797478329394,0.743421052631579
290,805.2797478329394,0.6907894736842105
291,805.2797478329394,0.6710526315789473
292,805.2797478329394,0.7236842105263157
293,805.2797478329394,0.6842105263157895
294,805.2797478329394,0.6447368421052632
295,805.2797478329394,0.7302631578947368
296,805.2797478329394,0.6644736842105263
297,808.0772261623324,0.638157894736842
298,808.0772261623324,0.611842105263158
299,808.0772261623324,0.618421052631579
300,808.0772261623324,0.5986842105263157
301,808.0772261623324,0.625
302,808.0772261623324,0.631578947368421
303,808.0772261623324,0.6447368421052632
304,808.0772261623324,0.6052631578947368
305,810.8747044917259,0.5723684210526316
306,810.8747044917259,0.5921052631578947
307,810.8747044917259,0.5657894736842105
308,810.8747044917259,0.5592105263157895
309,810.8747044917259,0.5986842105263157
310,810.8747044917259,0.5526315789473684
311,810.8747044917259,0.5789473684210527
312,810.8747044917259,0.5855263157894737
313,813.6721828211189,0.5394736842105263
314,813.6721828211189,0.5328947368421053
315,813.6721828211189,0.5263157894736843
316,813.6721828211189,0.5526315789473684
317,813.6721828211189,0.5460526315789473
318,816.4696611505124,0.513157894736842
319,816.4696611505124,0.5
320,816.4696611505124,0.5263157894736843
321,816.4696611505124,0.506578947368421
322,816.4696611505124,0.5197368421052632
323,819.2671394799054,0.4473684210526315
324,819.2671394799054,0.4736842105263158
325,819.2671394799054,0.4407894736842105
326,819.2671394799054,0.48026315789473684
327,819.2671394799054,0.4078947368421053
328,819.2671394799054,0.38815789473684215
329,819.2671394799054,0.48684210526315785
330,819.2671394799054,0.5
331,819.2671394799054,0.39473684210526316
332,819.2671394799054,0.4671052631578947
333,819.2671394799054,0.4013157894736842
334,819.2671394799054,0.493421052631579
335,819.2671394799054,0.4144736842105263
336,819.2671394799054,0.4342105263157895
337,819.2671394799054,0.42105263157894735
338,819.2671394799054,0.4605263157894737
339,819.2671394799054,0.4276315789473685
340,819.2671394799054,0.45394736842105265
341,822.0646178092989,0.375
342,822.0646178092989,0.3486842105263158
343,822.0646178092989,0.368421052631579
344,822.0646178092989,0.38815789473684215
345,822.0646178092989,0.36184210526315785
346,822.0646178092989,0.35526315789473684
347,822.0646178092989,0.381578947368421
348,822.0646178092989,0.3355263157894737
349,822.0646178092989,0.3421052631578947
350,824.8620961386919,0.32894736842105265
351,824.8620961386919,0.2894736842105263
352,824.8620961386919,0.3223684210526315
353,824.8620961386919,0.256578947368421
354,824.8620961386919,0.3092105263157895
355,824.8620961386919,0.3157894736842105
356,824.8620961386919,0.26973684210526316
357,824.8620961386919,0.26315789473684215
358,824.8620961386919,0.3355263157894737
359,824.8620961386919,0.3026315789473685
360,824.8620961386919,0.2763157894736842
361,824.8620961386919,0.29605263157894735
362,824.8620961386919,0.2828947368421053
363,827.6595744680849,0.256578947368421
364,827.6595744680849,0.24342105263157898
365,827.6595744680849,0.25
366,830.4570527974784,0.23684210526315785
367,830.4570527974784,0.24342105263157898
368,833.2545311268714,0.256578947368421
369,833.2545311268714,0.25
370,833.2545311268714,0.24342105263157898
371,836.0520094562648,0.2763157894736842
372,836.0520094562648,0.256578947368421
373,836.0520094562648,0.2828947368421053
374,836.0520094562648,0.26973684210526316
375,836.0520094562648,0.26315789473684215
376,838.8494877856579,0.2763157894736842
377,838.8494877856579,0.2828947368421053
378,841.6469661150513,0.256578947368421
379,841.6469661150513,0.23684210526315785
380,841.6469661150513,0.26315789473684215
381,841.6469661150513,0.25
382,841.6469661150513,0.26973684210526316
383,841.6469661150513,0.2763157894736842
384,841.6469661150513,0.24342105263157898
385,844.4444444444443,0.22368421052631582
386,844.4444444444443,0.2171052631578947
387,844.4444444444443,0.23026315789473684
388,844.4444444444443,0.23684210526315785
389,844.4444444444443,0.21052631578947367
390,847.2419227738378,0.21052631578947367
391,847.2419227738378,0.20394736842105265
392,847.2419227738378,0.19736842105263153
393,847.2419227738378,0.1907894736842105
394,850.0394011032308,0.16447368421052633
395,850.0394011032308,0.17763157894736847
396,850.0394011032308,0.17105263157894735
397,850.0394011032308,0.1907894736842105
398,850.0394011032308,0.1842105263157895
399,852.8368794326243,0.16447368421052633
400,855.6343577620173,0.16447368421052633
401,858.4318360914103,0.16447368421052633
402,861.2293144208038,0.16447368421052633
403,861.2293144208038,0.1578947368421053
404,864.0267927501968,0.1578947368421053
405,866.8242710795903,0.15131578947368418
406,866.8242710795903,0.1578947368421053
407,869.6217494089833,0.15131578947368418
408,869.6217494089833,0.14473684210526316
409,872.4192277383768,0.14473684210526316
410,872.4192277383768,0.13815789473684215
411,875.2167060677698,0.125
412,875.2167060677698,0.13815789473684215
413,875.2167060677698,0.13157894736842102
414,878.0141843971633,0.11842105263157898
415,878.0141843971633,0.125
416,880.8116627265563,0.11842105263157898
417,880.8116627265563,0.10526315789473684
418,880.8116627265563,0.11184210526315785
419,880.8116627265563,0.09868421052631582
420,883.6091410559497,0.09868421052631582
421,883.6091410559497,0.09210526315789469
422,886.4066193853428,0.07236842105263153
423,886.4066193853428,0.07894736842105265
424,886.4066193853428,0.08552631578947367
425,886.4066193853428,0.09210526315789469
426,889.2040977147362,0.07236842105263153
427,892.0015760441293,0.06578947368421051
428,892.0015760441293,0.05921052631578949
429,892.0015760441293,0.07236842105263153
430,894.7990543735223,0.05921052631578949
431,897.5965327029157,0.05921052631578949
432,897.5965327029157,0.052631578947368474
433,900.3940110323088,0.052631578947368474
434,903.1914893617022,0.052631578947368474
435,905.9889676910952,0.052631578947368474
436,908.7864460204887,0.052631578947368474
437,911.5839243498817,0.052631578947368474
438,914.3814026792752,0.052631578947368474
439,917.1788810086682,0.052631578947368474
440,919.9763593380617,0.052631578947368474
441,922.7738376674547,0.052631578947368474
442,925.5713159968477,0.052631578947368474
443,928.3687943262412,0.052631578947368474
444,931.1662726556342,0.052631578947368474
445,933.9637509850277,0.052631578947368474
446,936.7612293144207,0.052631578947368474
447,939.5587076438142,0.052631578947368474
448,942.3561859732072,0.052631578947368474
449,945.1536643026006,0.052631578947368474
450,947.9511426319937,0.052631578947368474
451,947.9511426319937,0.05921052631578949
452,950.7486209613871,0.05921052631578949
453,953.5460992907801,0.05921052631578949
454,953.5460992907801,0.06578947368421051
455,956.3435776201732,0.06578947368421051
456,959.1410559495666,0.06578947368421051
457,959.1410559495666,0.07236842105263153
458,961.9385342789597,0.07894736842105265
459,961.9385342789597,0.07236842105263153
460,964.7360126083531,0.07894736842105265
461,967.5334909377461,0.07894736842105265
462,967.5334909377461,0.08552631578947367
463,970.3309692671396,0.08552631578947367
464,973.1284475965326,0.08552631578947367
465,973.1284475965326,0.09210526315789469
466,975.9259259259261,0.09210526315789469
467,975.9259259259261,0.09868421052631582
468,978.7234042553191,0.10526315789473684
469,978.7234042553191,0.11184210526315785
470,978.7234042553191,0.09868421052631582
471,981.5208825847126,0.11842105263157898
472,981.5208825847126,0.11184210526315785
473,984.3183609141056,0.11842105263157898
474,984.3183609141056,0.125
475,987.1158392434986,0.14473684210526316
