,wavenumbers,absorbance
0,452.797478329393,0.02631578947368418
1,455.5949566587865,0.02631578947368418
2,458.3924349881795,0.02631578947368418
3,461.189913317573,0.02631578947368418
4,463.987391646966,0.02631578947368418
5,466.78486997635946,0.02631578947368418
6,469.5823483057525,0.02631578947368418
7,472.37982663514595,0.019736842105263164
8,472.37982663514595,0.02631578947368418
9,475.17730496453896,0.019736842105263164
10,477.97478329393243,0.019736842105263164
11,480.77226162332545,0.019736842105263164
12,483.56973995271846,0.019736842105263164
13,486.36721828211193,0.019736842105263164
14,489.16469661150495,0.019736842105263164
15,491.9621749408984,0.02631578947368418
16,491.9621749408984,0.019736842105263164
17,494.75965327029144,0.02631578947368418
18,497.5571315996849,0.02631578947368418
19,500.3546099290779,0.02631578947368418
20,503.1520882584714,0.02631578947368418
21,505.9495665878644,0.02631578947368418
22,508.7470449172579,0.02631578947368418
23,511.5445232466509,0.02631578947368418
24,514.3420015760439,0.02631578947368418
25,517.1394799054374,0.02631578947368418
26,519.9369582348304,0.02631578947368418
27,522.7344365642239,0.02631578947368418
28,525.5319148936169,0.02631578947368418
29,528.3293932230104,0.02631578947368418
30,528.3293932230104,0.03289473684210531
31,531.1268715524034,0.03289473684210531
32,533.9243498817968,0.03289473684210531
33,536.7218282111899,0.03289473684210531
34,539.5193065405833,0.03289473684210531
35,542.3167848699763,0.03289473684210531
36,545.1142631993694,0.03947368421052633
37,545.1142631993694,0.03289473684210531
38,547.9117415287628,0.03947368421052633
39,550.7092198581558,0.046052631578947345
40,550.7092198581558,0.03947368421052633
41,553.5066981875493,0.046052631578947345
42,556.3041765169423,0.046052631578947345
43,559.1016548463358,0.046052631578947345
44,561.8991331757288,0.046052631578947345
45,564.6966115051223,0.046052631578947345
46,567.4940898345153,0.046052631578947345
47,570.2915681639088,0.046052631578947345
48,573.0890464933018,0.046052631578947345
49,575.8865248226948,0.046052631578947345
50,578.6840031520883,0.046052631578947345
51,581.4814814814813,0.046052631578947345
52,584.2789598108748,0.046052631578947345
53,587.0764381402678,0.046052631578947345
54,589.8739164696613,0.046052631578947345
55,592.6713947990543,0.046052631578947345
56,595.4688731284477,0.046052631578947345
57,598.2663514578408,0.046052631578947345
58,601.0638297872342,0.046052631578947345
59,603.8613081166272,0.046052631578947345
60,603.8613081166272,0.052631578947368474
61,606.6587864460207,0.052631578947368474
62,609.4562647754137,0.052631578947368474
63,612.2537431048067,0.052631578947368474
64,615.0512214342002,0.052631578947368474
65,617.8486997635932,0.052631578947368474
66,620.6461780929867,0.052631578947368474
67,623.4436564223797,0.052631578947368474
68,626.2411347517732,0.052631578947368474
69,629.0386130811662,0.052631578947368474
70,631.8360914105597,0.052631578947368474
71,634.6335697399527,0.052631578947368474
72,637.4310480693462,0.052631578947368474
73,637.4310480693462,0.05921052631578949
74,640.2285263987392,0.05921052631578949
75,643.0260047281322,0.05921052631578949
76,645.8234830575257,0.05921052631578949
77,645.8234830575257,0.06578947368421051
78,648.6209613869187,0.07236842105263153
79,648.6209613869187,0.06578947368421051
80,651.4184397163122,0.07894736842105265
81,651.4184397163122,0.07236842105263153
82,654.2159180457052,0.07236842105263153
83,654.2159180457052,0.07894736842105265
84,657.0133963750986,0.05921052631578949
85,657.0133963750986,0.07236842105263153
86,657.0133963750986,0.06578947368421051
87,659.8108747044917,0.05921052631578949
88,662.6083530338851,0.05921052631578949
89,662.6083530338851,0.052631578947368474
90,665.4058313632781,0.052631578947368474
91,668.2033096926716,0.052631578947368474
92,671.0007880220646,0.052631578947368474
93,673.7982663514576,0.052631578947368474
94,676.5957446808511,0.052631578947368474
95,676.5957446808511,0.046052631578947345
96,679.3932230102441,0.046052631578947345
97,682.1907013396376,0.046052631578947345
98,684.9881796690306,0.046052631578947345
99,687.7856579984241,0.03947368421052633
100,687.7856579984241,0.046052631578947345
101,690.5831363278171,0.03947368421052633
102,693.3806146572106,0.03947368421052633
103,696.1780929866036,0.046052631578947345
104,696.1780929866036,0.03947368421052633
105,698.9755713159971,0.046052631578947345
106,698.9755713159971,0.052631578947368474
107,701.7730496453901,0.05921052631578949
108,701.7730496453901,0.052631578947368474
109,704.5705279747831,0.05921052631578949
110,704.5705279747831,0.06578947368421051
111,707.3680063041766,0.06578947368421051
112,707.3680063041766,0.07236842105263153
113,710.1654846335696,0.07236842105263153
114,712.962962962963,0.07236842105263153
115,715.7604412923561,0.07236842105263153
116,718.5579196217495,0.07236842105263153
117,718.5579196217495,0.09868421052631582
118,718.5579196217495,0.07894736842105265
119,718.5579196217495,0.09210526315789469
120,718.5579196217495,0.08552631578947367
121,718.5579196217495,0.10526315789473684
122,721.3553979511425,0.13815789473684215
123,721.3553979511425,0.11184210526315785
124,721.3553979511425,0.15131578947368418
125,721.3553979511425,0.13157894736842102
126,721.3553979511425,0.125
127,721.3553979511425,0.10526315789473684
128,721.3553979511425,0.11842105263157898
129,721.3553979511425,0.14473684210526316
130,724.152876280536,0.21052631578947367
131,724.152876280536,0.17763157894736847
132,724.152876280536,0.1907894736842105
133,724.152876280536,0.16447368421052633
134,724.152876280536,0.1842105263157895
135,724.152876280536,0.2171052631578947
136,724.152876280536,0.15131578947368418
137,724.152876280536,0.22368421052631582
138,724.152876280536,0.17105263157894735
139,724.152876280536,0.20394736842105265
140,724.152876280536,0.1578947368421053
141,724.152876280536,0.19736842105263153
142,726.950354609929,0.23026315789473684
143,729.7478329393225,0.2171052631578947
144,729.7478329393225,0.21052631578947367
145,729.7478329393225,0.22368421052631582
146,729.7478329393225,0.23026315789473684
147,732.5453112687155,0.16447368421052633
148,732.5453112687155,0.20394736842105265
149,732.5453112687155,0.13815789473684215
150,732.5453112687155,0.1842105263157895
151,732.5453112687155,0.19736842105263153
152,732.5453112687155,0.15131578947368418
153,732.5453112687155,0.17763157894736847
154,732.5453112687155,0.14473684210526316
155,732.5453112687155,0.21052631578947367
156,732.5453112687155,0.1907894736842105
157,732.5453112687155,0.1578947368421053
158,732.5453112687155,0.17105263157894735
159,735.3427895981085,0.10526315789473684
160,735.3427895981085,0.09868421052631582
161,735.3427895981085,0.11842105263157898
162,735.3427895981085,0.11184210526315785
163,735.3427895981085,0.13157894736842102
164,735.3427895981085,0.125
165,735.3427895981085,0.13815789473684215
166,738.140267927502,0.07894736842105265
167,738.140267927502,0.09868421052631582
168,738.140267927502,0.06578947368421051
169,738.140267927502,0.08552631578947367
170,738.140267927502,0.052631578947368474
171,738.140267927502,0.05921052631578949
172,738.140267927502,0.09210526315789469
173,738.140267927502,0.07236842105263153
174,740.937746256895,0.052631578947368474
175,740.937746256895,0.046052631578947345
176,743.7352245862885,0.03947368421052633
177,743.7352245862885,0.046052631578947345
178,746.5327029156815,0.03947368421052633
179,749.330181245075,0.03289473684210531
180,749.330181245075,0.03947368421052633
181,752.127659574468,0.03289473684210531
182,754.9251379038615,0.03289473684210531
183,757.7226162332545,0.03289473684210531
184,760.520094562648,0.03289473684210531
185,760.520094562648,0.03947368421052633
186,763.317572892041,0.03947368421052633
187,763.317572892041,0.046052631578947345
188,766.115051221434,0.052631578947368474
189,766.115051221434,0.046052631578947345
190,768.9125295508275,0.052631578947368474
191,768.9125295508275,0.05921052631578949
192,771.7100078802205,0.052631578947368474
193,771.7100078802205,0.05921052631578949
194,774.507486209614,0.046052631578947345
195,774.507486209614,0.052631578947368474
196,777.304964539007,0.046052631578947345
197,780.1024428684004,0.046052631578947345
198,780.1024428684004,0.03947368421052633
199,780.1024428684004,0.03289473684210531
200,782.8999211977934,0.03289473684210531
201,782.8999211977934,0.02631578947368418
202,785.6973995271869,0.02631578947368418
203,788.4948778565799,0.02631578947368418
204,791.2923561859734,0.02631578947368418
205,794.0898345153664,0.019736842105263164
206,794.0898345153664,0.02631578947368418
207,796.8873128447594,0.019736842105263164
208,799.6847911741529,0.02631578947368418
209,799.6847911741529,0.019736842105263164
210,802.4822695035459,0.02631578947368418
211,802.4822695035459,0.019736842105263164
212,805.2797478329394,0.019736842105263164
213,805.2797478329394,0.02631578947368418
214,808.0772261623324,0.019736842105263164
215,810.8747044917259,0.019736842105263164
216,810.8747044917259,0.02631578947368418
217,813.6721828211189,0.02631578947368418
218,816.4696611505124,0.02631578947368418
219,819.2671394799054,0.02631578947368418
220,819.2671394799054,0.03289473684210531
221,822.0646178092989,0.03289473684210531
222,824.8620961386919,0.03289473684210531
223,824.8620961386919,0.03947368421052633
224,827.6595744680849,0.03947368421052633
225,830.4570527974784,0.03947368421052633
226,830.4570527974784,0.03289473684210531
227,833.2545311268714,0.03289473684210531
228,836.0520094562648,0.03289473684210531
229,838.8494877856579,0.03289473684210531
230,841.6469661150513,0.03289473684210531
231,844.4444444444443,0.03289473684210531
232,847.2419227738378,0.03289473684210531
233,850.0394011032308,0.03289473684210531
234,850.0394011032308,0.03947368421052633
235,852.8368794326243,0.03947368421052633
236,855.6343577620173,0.03947368421052633
237,855.6343577620173,0.046052631578947345
238,858.4318360914103,0.046052631578947345
239,861.2293144208038,0.046052631578947345
240,861.2293144208038,0.052631578947368474
241,864.0267927501968,0.052631578947368474
242,866.8242710795903,0.052631578947368474
243,866.8242710795903,0.046052631578947345
244,869.6217494089833,0.046052631578947345
245,872.4192277383768,0.046052631578947345
246,875.2167060677698,0.03947368421052633
247,875.2167060677698,0.046052631578947345
248,878.0141843971633,0.03947368421052633
249,880.8116627265563,0.03947368421052633
250,883.6091410559497,0.03947368421052633
251,886.4066193853428,0.03947368421052633
252,889.2040977147362,0.03947368421052633
253,892.0015760441293,0.03947368421052633
254,894.7990543735223,0.03947368421052633
255,897.5965327029157,0.046052631578947345
256,897.5965327029157,0.03947368421052633
257,900.3940110323088,0.046052631578947345
258,903.1914893617022,0.046052631578947345
259,905.9889676910952,0.046052631578947345
260,908.7864460204887,0.046052631578947345
261,908.7864460204887,0.052631578947368474
262,911.5839243498817,0.052631578947368474
263,914.3814026792752,0.052631578947368474
264,917.1788810086682,0.05921052631578949
265,917.1788810086682,0.052631578947368474
266,919.9763593380617,0.06578947368421051
267,919.9763593380617,0.05921052631578949
268,922.7738376674547,0.07236842105263153
269,922.7738376674547,0.06578947368421051
270,925.5713159968477,0.07894736842105265
271,925.5713159968477,0.07236842105263153
272,928.3687943262412,0.07894736842105265
273,931.1662726556342,0.07894736842105265
274,931.1662726556342,0.08552631578947367
275,933.9637509850277,0.08552631578947367
276,936.7612293144207,0.08552631578947367
277,936.7612293144207,0.07894736842105265
278,939.5587076438142,0.07894736842105265
279,942.3561859732072,0.07894736842105265
280,945.1536643026006,0.07894736842105265
281,947.9511426319937,0.07236842105263153
282,947.9511426319937,0.07894736842105265
283,950.7486209613871,0.07236842105263153
284,953.5460992907801,0.05921052631578949
285,953.5460992907801,0.06578947368421051
286,953.5460992907801,0.07236842105263153
287,956.3435776201732,0.05921052631578949
288,959.1410559495666,0.05921052631578949
289,959.1410559495666,0.052631578947368474
290,961.9385342789597,0.052631578947368474
291,961.9385342789597,0.05921052631578949
292,964.7360126083531,0.05921052631578949
293,967.5334909377461,0.05921052631578949
294,967.5334909377461,0.06578947368421051
295,970.3309692671396,0.06578947368421051
296,970.3309692671396,0.07236842105263153
297,973.1284475965326,0.08552631578947367
298,973.1284475965326,0.07894736842105265
299,973.1284475965326,0.07236842105263153
300,975.9259259259261,0.08552631578947367
301,978.7234042553191,0.09868421052631582
302,978.7234042553191,0.09210526315789469
303,978.7234042553191,0.08552631578947367
304,981.5208825847126,0.09868421052631582
305,981.5208825847126,0.10526315789473684
306,984.3183609141056,0.10526315789473684
307,987.1158392434986,0.11184210526315785
308,987.1158392434986,0.10526315789473684
309,989.9133175728921,0.11184210526315785
310,992.7107959022851,0.11842105263157898
311,992.7107959022851,0.11184210526315785
312,995.5082742316786,0.11842105263157898
313,998.3057525610716,0.11842105263157898
314,998.3057525610716,0.125
315,1001.103230890465,0.125
316,1001.103230890465,0.11842105263157898
317,1003.9007092198581,0.11842105263157898
318,1006.6981875492515,0.125
319,1006.6981875492515,0.11842105263157898
320,1009.4956658786446,0.13157894736842102
321,1009.4956658786446,0.125
322,1009.4956658786446,0.13815789473684215
323,1012.293144208038,0.13815789473684215
324,1012.293144208038,0.14473684210526316
325,1015.090622537431,0.14473684210526316
326,1015.090622537431,0.1578947368421053
327,1015.090622537431,0.15131578947368418
328,1017.8881008668241,0.1578947368421053
329,1017.8881008668241,0.17105263157894735
330,1017.8881008668241,0.16447368421052633
331,1020.6855791962175,0.17763157894736847
332,1020.6855791962175,0.17105263157894735
333,1023.4830575256105,0.17763157894736847
334,1023.4830575256105,0.1842105263157895
335,1026.280535855004,0.1907894736842105
336,1026.280535855004,0.1842105263157895
337,1029.078014184397,0.1907894736842105
338,1031.8754925137905,0.19736842105263153
339,1031.8754925137905,0.1907894736842105
340,1034.6729708431835,0.1907894736842105
341,1034.6729708431835,0.19736842105263153
342,1037.470449172577,0.1907894736842105
343,1040.26792750197,0.1907894736842105
344,1040.26792750197,0.1842105263157895
345,1043.0654058313635,0.1842105263157895
346,1045.8628841607565,0.17763157894736847
347,1045.8628841607565,0.1842105263157895
348,1048.6603624901495,0.17105263157894735
349,1048.6603624901495,0.17763157894736847
350,1048.6603624901495,0.16447368421052633
351,1051.457840819543,0.1578947368421053
352,1051.457840819543,0.16447368421052633
353,1054.255319148936,0.1578947368421053
354,1057.0527974783295,0.15131578947368418
355,1057.0527974783295,0.1578947368421053
356,1059.8502758077225,0.15131578947368418
357,1059.8502758077225,0.1578947368421053
358,1062.647754137116,0.16447368421052633
359,1062.647754137116,0.1578947368421053
360,1065.445232466509,0.17105263157894735
361,1065.445232466509,0.1842105263157895
362,1065.445232466509,0.16447368421052633
363,1065.445232466509,0.17763157894736847
364,1065.445232466509,0.1907894736842105
365,1068.2427107959024,0.1907894736842105
366,1068.2427107959024,0.19736842105263153
367,1068.2427107959024,0.20394736842105265
368,1068.2427107959024,0.21052631578947367
369,1071.0401891252955,0.2171052631578947
370,1071.0401891252955,0.22368421052631582
371,1071.0401891252955,0.21052631578947367
372,1071.0401891252955,0.23026315789473684
373,1073.837667454689,0.23684210526315785
374,1073.837667454689,0.23026315789473684
375,1076.635145784082,0.21052631578947367
376,1076.635145784082,0.23026315789473684
377,1076.635145784082,0.2171052631578947
378,1076.635145784082,0.22368421052631582
379,1079.432624113475,0.19736842105263153
380,1079.432624113475,0.1842105263157895
381,1079.432624113475,0.20394736842105265
382,1079.432624113475,0.21052631578947367
383,1079.432624113475,0.1907894736842105
384,1082.2301024428684,0.1842105263157895
385,1085.0275807722614,0.1842105263157895
386,1085.0275807722614,0.1907894736842105
387,1087.825059101655,0.20394736842105265
388,1087.825059101655,0.1907894736842105
389,1087.825059101655,0.19736842105263153
390,1090.622537431048,0.21052631578947367
391,1090.622537431048,0.20394736842105265
392,1093.4200157604414,0.21052631578947367
393,1096.2174940898344,0.19736842105263153
394,1096.2174940898344,0.20394736842105265
395,1096.2174940898344,0.21052631578947367
396,1099.014972419228,0.19736842105263153
397,1099.014972419228,0.1907894736842105
398,1101.812450748621,0.1907894736842105
399,1104.6099290780144,0.1907894736842105
400,1107.4074074074074,0.1907894736842105
401,1107.4074074074074,0.19736842105263153
402,1110.2048857368004,0.2171052631578947
403,1110.2048857368004,0.21052631578947367
404,1110.2048857368004,0.20394736842105265
405,1110.2048857368004,0.22368421052631582
406,1110.2048857368004,0.19736842105263153
407,1113.0023640661939,0.23684210526315785
408,1113.0023640661939,0.22368421052631582
409,1113.0023640661939,0.23026315789473684
410,1115.799842395587,0.24342105263157898
411,1115.799842395587,0.26315789473684215
412,1115.799842395587,0.23684210526315785
413,1115.799842395587,0.25
414,1115.799842395587,0.256578947368421
415,1115.799842395587,0.26973684210526316
416,1118.5973207249804,0.2763157894736842
417,1118.5973207249804,0.2828947368421053
418,1118.5973207249804,0.26973684210526316
419,1121.3947990543734,0.2828947368421053
420,1121.3947990543734,0.29605263157894735
421,1121.3947990543734,0.3092105263157895
422,1121.3947990543734,0.3157894736842105
423,1121.3947990543734,0.3026315789473685
424,1121.3947990543734,0.2894736842105263
425,1124.1922773837669,0.3223684210526315
426,1124.1922773837669,0.3157894736842105
427,1124.1922773837669,0.32894736842105265
428,1126.9897557131599,0.3421052631578947
429,1126.9897557131599,0.32894736842105265
430,1126.9897557131599,0.3355263157894737
431,1129.7872340425533,0.3421052631578947
432,1129.7872340425533,0.3486842105263158
433,1129.7872340425533,0.35526315789473684
434,1132.5847123719464,0.36184210526315785
435,1132.5847123719464,0.35526315789473684
436,1135.3821907013398,0.36184210526315785
437,1135.3821907013398,0.35526315789473684
438,1138.1796690307328,0.3486842105263158
439,1138.1796690307328,0.35526315789473684
440,1140.9771473601263,0.3355263157894737
441,1140.9771473601263,0.32894736842105265
442,1140.9771473601263,0.3486842105263158
443,1140.9771473601263,0.3421052631578947
444,1143.7746256895193,0.32894736842105265
445,1143.7746256895193,0.3223684210526315
446,1146.5721040189123,0.3092105263157895
447,1146.5721040189123,0.3223684210526315
448,1146.5721040189123,0.3026315789473685
449,1146.5721040189123,0.3157894736842105
450,1149.3695823483058,0.29605263157894735
451,1149.3695823483058,0.3026315789473685
452,1152.1670606776988,0.29605263157894735
453,1152.1670606776988,0.2828947368421053
454,1152.1670606776988,0.2894736842105263
455,1154.9645390070923,0.2828947368421053
456,1157.7620173364853,0.2828947368421053
457,1160.5594956658788,0.2828947368421053
458,1160.5594956658788,0.2894736842105263
459,1163.3569739952718,0.2894736842105263
460,1163.3569739952718,0.2828947368421053
461,1166.1544523246653,0.2828947368421053
462,1166.1544523246653,0.2763157894736842
463,1168.9519306540583,0.26973684210526316
464,1168.9519306540583,0.26315789473684215
465,1168.9519306540583,0.2763157894736842
466,1171.7494089834518,0.256578947368421
