,wavenumbers,absorbance
0,452.797478329393,0.03947368421052633
1,455.5949566587865,0.03947368421052633
2,458.3924349881795,0.03289473684210531
3,458.3924349881795,0.03947368421052633
4,461.189913317573,0.03289473684210531
5,463.987391646966,0.03289473684210531
6,466.78486997635946,0.03289473684210531
7,469.5823483057525,0.03289473684210531
8,472.37982663514595,0.03289473684210531
9,475.17730496453896,0.03289473684210531
10,477.97478329393243,0.03289473684210531
11,480.77226162332545,0.03289473684210531
12,483.56973995271846,0.03289473684210531
13,486.36721828211193,0.03289473684210531
14,489.16469661150495,0.03289473684210531
15,491.9621749408984,0.03289473684210531
16,494.75965327029144,0.03289473684210531
17,497.5571315996849,0.03289473684210531
18,500.3546099290779,0.03289473684210531
19,503.1520882584714,0.03289473684210531
20,505.9495665878644,0.03289473684210531
21,508.7470449172579,0.03289473684210531
22,511.5445232466509,0.03289473684210531
23,514.3420015760439,0.03289473684210531
24,517.1394799054374,0.03289473684210531
25,519.9369582348304,0.03289473684210531
26,522.7344365642239,0.03289473684210531
27,525.5319148936169,0.02631578947368418
28,525.5319148936169,0.03289473684210531
29,528.3293932230104,0.02631578947368418
30,531.1268715524034,0.02631578947368418
31,533.9243498817968,0.02631578947368418
32,536.7218282111899,0.02631578947368418
33,539.5193065405833,0.02631578947368418
34,542.3167848699763,0.02631578947368418
35,545.1142631993694,0.02631578947368418
36,547.9117415287628,0.02631578947368418
37,550.7092198581558,0.02631578947368418
38,553.5066981875493,0.02631578947368418
39,556.3041765169423,0.02631578947368418
40,559.1016548463358,0.02631578947368418
41,559.1016548463358,0.019736842105263164
42,561.8991331757288,0.02631578947368418
43,561.8991331757288,0.019736842105263164
44,564.6966115051223,0.02631578947368418
45,564.6966115051223,0.019736842105263164
46,567.4940898345153,0.019736842105263164
47,567.4940898345153,0.02631578947368418
48,570.2915681639088,0.02631578947368418
49,570.2915681639088,0.019736842105263164
50,573.0890464933018,0.02631578947368418
51,575.8865248226948,0.019736842105263164
52,575.8865248226948,0.02631578947368418
53,578.6840031520883,0.02631578947368418
54,581.4814814814813,0.02631578947368418
55,584.2789598108748,0.02631578947368418
56,587.0764381402678,0.02631578947368418
57,589.8739164696613,0.02631578947368418
58,592.6713947990543,0.02631578947368418
59,595.4688731284477,0.02631578947368418
60,595.4688731284477,0.019736842105263164
61,598.2663514578408,0.019736842105263164
62,601.0638297872342,0.019736842105263164
63,603.8613081166272,0.019736842105263164
64,606.6587864460207,0.019736842105263164
65,609.4562647754137,0.019736842105263164
66,612.2537431048067,0.019736842105263164
67,615.0512214342002,0.019736842105263164
68,617.8486997635932,0.019736842105263164
69,620.6461780929867,0.019736842105263164
70,623.4436564223797,0.019736842105263164
71,626.2411347517732,0.019736842105263164
72,629.0386130811662,0.019736842105263164
73,631.8360914105597,0.019736842105263164
74,634.6335697399527,0.019736842105263164
75,637.4310480693462,0.019736842105263164
76,640.2285263987392,0.019736842105263164
77,643.0260047281322,0.019736842105263164
78,645.8234830575257,0.019736842105263164
79,648.6209613869187,0.019736842105263164
80,651.4184397163122,0.019736842105263164
81,654.2159180457052,0.019736842105263164
82,657.0133963750986,0.019736842105263164
83,659.8108747044917,0.019736842105263164
84,662.6083530338851,0.019736842105263164
85,665.4058313632781,0.019736842105263164
86,668.2033096926716,0.019736842105263164
87,671.0007880220646,0.019736842105263164
88,673.7982663514576,0.019736842105263164
89,676.5957446808511,0.019736842105263164
90,679.3932230102441,0.019736842105263164
91,682.1907013396376,0.019736842105263164
92,684.9881796690306,0.019736842105263164
93,687.7856579984241,0.019736842105263164
94,690.5831363278171,0.019736842105263164
95,693.3806146572106,0.019736842105263164
96,696.1780929866036,0.019736842105263164
97,698.9755713159971,0.019736842105263164
98,701.7730496453901,0.019736842105263164
99,704.5705279747831,0.019736842105263164
100,707.3680063041766,0.019736842105263164
101,710.1654846335696,0.019736842105263164
102,712.962962962963,0.02631578947368418
103,712.962962962963,0.019736842105263164
104,715.7604412923561,0.02631578947368418
105,718.5579196217495,0.02631578947368418
106,721.3553979511425,0.02631578947368418
107,724.152876280536,0.03289473684210531
108,724.152876280536,0.02631578947368418
109,726.950354609929,0.03289473684210531
110,729.7478329393225,0.03289473684210531
111,729.7478329393225,0.03947368421052633
112,732.5453112687155,0.03947368421052633
113,735.3427895981085,0.03947368421052633
114,735.3427895981085,0.046052631578947345
115,738.140267927502,0.052631578947368474
116,738.140267927502,0.046052631578947345
117,740.937746256895,0.052631578947368474
118,743.7352245862885,0.052631578947368474
119,746.5327029156815,0.05921052631578949
120,746.5327029156815,0.052631578947368474
121,749.330181245075,0.05921052631578949
122,752.127659574468,0.05921052631578949
123,754.9251379038615,0.05921052631578949
124,757.7226162332545,0.05921052631578949
125,760.520094562648,0.05921052631578949
126,763.317572892041,0.05921052631578949
127,766.115051221434,0.05921052631578949
128,768.9125295508275,0.05921052631578949
129,771.7100078802205,0.05921052631578949
130,774.507486209614,0.06578947368421051
131,774.507486209614,0.05921052631578949
132,777.304964539007,0.06578947368421051
133,780.1024428684004,0.07236842105263153
134,780.1024428684004,0.06578947368421051
135,782.8999211977934,0.07236842105263153
136,785.6973995271869,0.07236842105263153
137,785.6973995271869,0.06578947368421051
138,788.4948778565799,0.06578947368421051
139,791.2923561859734,0.06578947368421051
140,794.0898345153664,0.06578947368421051
141,794.0898345153664,0.05921052631578949
142,796.8873128447594,0.05921052631578949
143,799.6847911741529,0.05921052631578949
144,802.4822695035459,0.05921052631578949
145,805.2797478329394,0.05921052631578949
146,808.0772261623324,0.052631578947368474
147,808.0772261623324,0.05921052631578949
148,810.8747044917259,0.052631578947368474
149,813.6721828211189,0.052631578947368474
150,816.4696611505124,0.052631578947368474
151,819.2671394799054,0.052631578947368474
152,819.2671394799054,0.05921052631578949
153,822.0646178092989,0.05921052631578949
154,824.8620961386919,0.05921052631578949
155,824.8620961386919,0.06578947368421051
156,827.6595744680849,0.06578947368421051
157,830.4570527974784,0.06578947368421051
158,830.4570527974784,0.07236842105263153
159,833.2545311268714,0.07236842105263153
160,833.2545311268714,0.07894736842105265
161,836.0520094562648,0.08552631578947367
162,836.0520094562648,0.07894736842105265
163,838.8494877856579,0.08552631578947367
164,838.8494877856579,0.09210526315789469
165,841.6469661150513,0.09210526315789469
166,841.6469661150513,0.10526315789473684
167,841.6469661150513,0.09868421052631582
168,844.4444444444443,0.11184210526315785
169,844.4444444444443,0.11842105263157898
170,844.4444444444443,0.10526315789473684
171,847.2419227738378,0.11842105263157898
172,850.0394011032308,0.11842105263157898
173,852.8368794326243,0.11184210526315785
174,852.8368794326243,0.11842105263157898
175,852.8368794326243,0.10526315789473684
176,855.6343577620173,0.09210526315789469
177,855.6343577620173,0.09868421052631582
178,855.6343577620173,0.10526315789473684
179,858.4318360914103,0.09210526315789469
180,858.4318360914103,0.08552631578947367
181,861.2293144208038,0.08552631578947367
182,861.2293144208038,0.07894736842105265
183,864.0267927501968,0.07894736842105265
184,866.8242710795903,0.07894736842105265
185,869.6217494089833,0.07894736842105265
186,872.4192277383768,0.07894736842105265
187,875.2167060677698,0.07894736842105265
188,875.2167060677698,0.08552631578947367
189,878.0141843971633,0.08552631578947367
190,880.8116627265563,0.07894736842105265
191,880.8116627265563,0.08552631578947367
192,883.6091410559497,0.07894736842105265
193,886.4066193853428,0.07236842105263153
194,886.4066193853428,0.07894736842105265
195,889.2040977147362,0.07236842105263153
196,892.0015760441293,0.06578947368421051
197,892.0015760441293,0.07236842105263153
198,894.7990543735223,0.06578947368421051
199,897.5965327029157,0.07236842105263153
200,897.5965327029157,0.06578947368421051
201,900.3940110323088,0.07236842105263153
202,903.1914893617022,0.07236842105263153
203,905.9889676910952,0.07236842105263153
204,908.7864460204887,0.07894736842105265
205,908.7864460204887,0.07236842105263153
206,911.5839243498817,0.07894736842105265
207,914.3814026792752,0.07894736842105265
208,917.1788810086682,0.07894736842105265
209,919.9763593380617,0.07236842105263153
210,919.9763593380617,0.07894736842105265
211,922.7738376674547,0.07236842105263153
212,925.5713159968477,0.07236842105263153
213,928.3687943262412,0.07236842105263153
214,931.1662726556342,0.07236842105263153
215,933.9637509850277,0.07236842105263153
216,936.7612293144207,0.07236842105263153
217,939.5587076438142,0.07236842105263153
218,942.3561859732072,0.07236842105263153
219,945.1536643026006,0.07236842105263153
220,945.1536643026006,0.06578947368421051
221,947.9511426319937,0.06578947368421051
222,950.7486209613871,0.06578947368421051
223,953.5460992907801,0.06578947368421051
224,956.3435776201732,0.06578947368421051
225,959.1410559495666,0.06578947368421051
226,961.9385342789597,0.06578947368421051
227,964.7360126083531,0.06578947368421051
228,967.5334909377461,0.06578947368421051
229,967.5334909377461,0.05921052631578949
230,970.3309692671396,0.05921052631578949
231,973.1284475965326,0.05921052631578949
232,975.9259259259261,0.05921052631578949
233,978.7234042553191,0.052631578947368474
234,978.7234042553191,0.05921052631578949
235,981.5208825847126,0.052631578947368474
236,984.3183609141056,0.052631578947368474
237,987.1158392434986,0.05921052631578949
238,987.1158392434986,0.052631578947368474
239,989.9133175728921,0.05921052631578949
240,992.7107959022851,0.06578947368421051
241,992.7107959022851,0.05921052631578949
242,995.5082742316786,0.06578947368421051
243,995.5082742316786,0.07236842105263153
244,998.3057525610716,0.08552631578947367
245,998.3057525610716,0.07236842105263153
246,998.3057525610716,0.07894736842105265
247,1001.103230890465,0.08552631578947367
248,1001.103230890465,0.09210526315789469
249,1003.9007092198581,0.10526315789473684
250,1003.9007092198581,0.09868421052631582
251,1003.9007092198581,0.09210526315789469
252,1003.9007092198581,0.11184210526315785
253,1006.6981875492515,0.11842105263157898
254,1006.6981875492515,0.11184210526315785
255,1006.6981875492515,0.125
256,1009.4956658786446,0.13157894736842102
257,1009.4956658786446,0.125
258,1009.4956658786446,0.13815789473684215
259,1009.4956658786446,0.14473684210526316
260,1009.4956658786446,0.15131578947368418
261,1012.293144208038,0.15131578947368418
262,1012.293144208038,0.1578947368421053
263,1012.293144208038,0.16447368421052633
264,1015.090622537431,0.16447368421052633
265,1015.090622537431,0.17763157894736847
266,1015.090622537431,0.17105263157894735
267,1017.8881008668241,0.1842105263157895
268,1017.8881008668241,0.17763157894736847
269,1020.6855791962175,0.1842105263157895
270,1020.6855791962175,0.1907894736842105
271,1023.4830575256105,0.1842105263157895
272,1023.4830575256105,0.1907894736842105
273,1026.280535855004,0.1842105263157895
274,1029.078014184397,0.1842105263157895
275,1031.8754925137905,0.1842105263157895
276,1031.8754925137905,0.17763157894736847
277,1034.6729708431835,0.17105263157894735
278,1034.6729708431835,0.17763157894736847
279,1037.470449172577,0.17105263157894735
280,1040.26792750197,0.17105263157894735
281,1043.0654058313635,0.16447368421052633
282,1043.0654058313635,0.17105263157894735
283,1045.8628841607565,0.16447368421052633
284,1048.6603624901495,0.16447368421052633
285,1048.6603624901495,0.15131578947368418
286,1048.6603624901495,0.1578947368421053
287,1051.457840819543,0.15131578947368418
288,1051.457840819543,0.14473684210526316
289,1054.255319148936,0.14473684210526316
290,1054.255319148936,0.13157894736842102
291,1054.255319148936,0.13815789473684215
292,1057.0527974783295,0.13157894736842102
293,1059.8502758077225,0.13157894736842102
294,1059.8502758077225,0.13815789473684215
295,1062.647754137116,0.13815789473684215
296,1065.445232466509,0.13157894736842102
297,1065.445232466509,0.13815789473684215
298,1068.2427107959024,0.13157894736842102
299,1068.2427107959024,0.125
300,1071.0401891252955,0.125
301,1071.0401891252955,0.11842105263157898
302,1073.837667454689,0.11184210526315785
303,1073.837667454689,0.11842105263157898
304,1076.635145784082,0.11184210526315785
305,1079.432624113475,0.10526315789473684
306,1079.432624113475,0.11184210526315785
307,1082.2301024428684,0.11184210526315785
308,1085.0275807722614,0.11842105263157898
309,1085.0275807722614,0.11184210526315785
310,1085.0275807722614,0.13157894736842102
311,1085.0275807722614,0.125
312,1087.825059101655,0.14473684210526316
313,1087.825059101655,0.13157894736842102
314,1087.825059101655,0.13815789473684215
315,1090.622537431048,0.1578947368421053
316,1090.622537431048,0.15131578947368418
317,1090.622537431048,0.14473684210526316
318,1090.622537431048,0.16447368421052633
319,1093.4200157604414,0.16447368421052633
320,1096.2174940898344,0.1578947368421053
321,1096.2174940898344,0.16447368421052633
322,1099.014972419228,0.1578947368421053
323,1101.812450748621,0.1578947368421053
324,1104.6099290780144,0.1578947368421053
325,1104.6099290780144,0.17105263157894735
326,1104.6099290780144,0.16447368421052633
327,1107.4074074074074,0.1842105263157895
328,1107.4074074074074,0.17763157894736847
329,1107.4074074074074,0.17105263157894735
330,1110.2048857368004,0.1842105263157895
331,1110.2048857368004,0.1907894736842105
332,1113.0023640661939,0.1907894736842105
333,1115.799842395587,0.1907894736842105
334,1118.5973207249804,0.1907894736842105
335,1121.3947990543734,0.1907894736842105
336,1124.1922773837669,0.1907894736842105
337,1124.1922773837669,0.19736842105263153
338,1126.9897557131599,0.19736842105263153
339,1126.9897557131599,0.20394736842105265
340,1129.7872340425533,0.20394736842105265
341,1129.7872340425533,0.21052631578947367
342,1129.7872340425533,0.2171052631578947
343,1132.5847123719464,0.2171052631578947
344,1132.5847123719464,0.22368421052631582
345,1135.3821907013398,0.22368421052631582
346,1135.3821907013398,0.23026315789473684
347,1135.3821907013398,0.23684210526315785
348,1135.3821907013398,0.24342105263157898
349,1138.1796690307328,0.25
350,1138.1796690307328,0.256578947368421
351,1138.1796690307328,0.24342105263157898
352,1140.9771473601263,0.256578947368421
353,1140.9771473601263,0.26315789473684215
354,1140.9771473601263,0.26973684210526316
355,1140.9771473601263,0.2894736842105263
356,1140.9771473601263,0.29605263157894735
357,1140.9771473601263,0.2763157894736842
358,1140.9771473601263,0.2828947368421053
359,1143.7746256895193,0.3223684210526315
360,1143.7746256895193,0.3092105263157895
361,1143.7746256895193,0.3157894736842105
362,1143.7746256895193,0.29605263157894735
363,1143.7746256895193,0.32894736842105265
364,1143.7746256895193,0.3026315789473685
365,1146.5721040189123,0.39473684210526316
366,1146.5721040189123,0.3355263157894737
367,1146.5721040189123,0.3486842105263158
368,1146.5721040189123,0.35526315789473684
369,1146.5721040189123,0.36184210526315785
370,1146.5721040189123,0.375
371,1146.5721040189123,0.3421052631578947
372,1146.5721040189123,0.32894736842105265
373,1146.5721040189123,0.4013157894736842
374,1146.5721040189123,0.381578947368421
375,1146.5721040189123,0.38815789473684215
376,1146.5721040189123,0.368421052631579
377,1146.5721040189123,0.4078947368421053
378,1149.3695823483058,0.45394736842105265
379,1149.3695823483058,0.4342105263157895
380,1149.3695823483058,0.4407894736842105
381,1149.3695823483058,0.4144736842105263
382,1149.3695823483058,0.4473684210526315
383,1149.3695823483058,0.4276315789473685
384,1149.3695823483058,0.4078947368421053
385,1149.3695823483058,0.42105263157894735
386,1152.1670606776988,0.506578947368421
387,1152.1670606776988,0.4736842105263158
388,1152.1670606776988,0.48026315789473684
389,1152.1670606776988,0.4605263157894737
390,1152.1670606776988,0.4671052631578947
391,1152.1670606776988,0.48684210526315785
392,1152.1670606776988,0.493421052631579
393,1152.1670606776988,0.513157894736842
394,1152.1670606776988,0.5
395,1152.1670606776988,0.45394736842105265
396,1154.9645390070923,0.5263157894736843
397,1154.9645390070923,0.5197368421052632
398,1154.9645390070923,0.513157894736842
399,1157.7620173364853,0.5263157894736843
400,1160.5594956658788,0.513157894736842
401,1160.5594956658788,0.5263157894736843
402,1160.5594956658788,0.5197368421052632
403,1163.3569739952718,0.506578947368421
404,1163.3569739952718,0.513157894736842
405,1166.1544523246653,0.506578947368421
406,1166.1544523246653,0.513157894736842
407,1168.9519306540583,0.513157894736842
408,1168.9519306540583,0.5263157894736843
409,1168.9519306540583,0.5197368421052632
410,1171.7494089834518,0.5263157894736843
411,1171.7494089834518,0.5460526315789473
412,1171.7494089834518,0.5394736842105263
413,1171.7494089834518,0.5328947368421053
414,1174.5468873128448,0.5460526315789473
415,1174.5468873128448,0.5394736842105263
416,1177.3443656422378,0.506578947368421
417,1177.3443656422378,0.5394736842105263
418,1177.3443656422378,0.513157894736842
419,1177.3443656422378,0.5328947368421053
420,1177.3443656422378,0.5263157894736843
421,1177.3443656422378,0.5197368421052632
422,1177.3443656422378,0.5
423,1180.1418439716313,0.493421052631579
424,1180.1418439716313,0.48026315789473684
425,1180.1418439716313,0.5
426,1180.1418439716313,0.48684210526315785
427,1180.1418439716313,0.4736842105263158
428,1182.9393223010243,0.4736842105263158
429,1182.9393223010243,0.4473684210526315
430,1182.9393223010243,0.4671052631578947
431,1182.9393223010243,0.4605263157894737
432,1182.9393223010243,0.45394736842105265
433,1185.7368006304177,0.4013157894736842
434,1185.7368006304177,0.38815789473684215
435,1185.7368006304177,0.42105263157894735
436,1185.7368006304177,0.4144736842105263
437,1185.7368006304177,0.39473684210526316
438,1185.7368006304177,0.4342105263157895
439,1185.7368006304177,0.4276315789473685
440,1185.7368006304177,0.4473684210526315
441,1185.7368006304177,0.4078947368421053
442,1185.7368006304177,0.4407894736842105
443,1188.5342789598108,0.36184210526315785
444,1188.5342789598108,0.368421052631579
445,1188.5342789598108,0.375
446,1188.5342789598108,0.381578947368421
447,1188.5342789598108,0.38815789473684215
448,1191.3317572892042,0.36184210526315785
449,1191.3317572892042,0.3355263157894737
450,1191.3317572892042,0.32894736842105265
451,1191.3317572892042,0.3223684210526315
452,1191.3317572892042,0.35526315789473684
453,1191.3317572892042,0.3421052631578947
454,1191.3317572892042,0.3486842105263158
455,1194.1292356185972,0.3223684210526315
456,1194.1292356185972,0.3026315789473685
457,1194.1292356185972,0.3157894736842105
458,1194.1292356185972,0.3092105263157895
459,1196.9267139479907,0.29605263157894735
460,1196.9267139479907,0.3026315789473685
461,1196.9267139479907,0.2828947368421053
462,1196.9267139479907,0.2763157894736842
463,1196.9267139479907,0.2894736842105263
464,1199.7241922773837,0.2763157894736842
465,1199.7241922773837,0.26973684210526316
466,1202.5216706067772,0.26315789473684215
467,1202.5216706067772,0.256578947368421
