,wavenumbers,absorbance
0,452.797478329393,0.019736842105263164
1,455.5949566587865,0.019736842105263164
2,458.3924349881795,0.019736842105263164
3,458.3924349881795,0.02631578947368418
4,461.189913317573,0.02631578947368418
5,463.987391646966,0.02631578947368418
6,466.78486997635946,0.02631578947368418
7,469.5823483057525,0.02631578947368418
8,472.37982663514595,0.02631578947368418
9,475.17730496453896,0.02631578947368418
10,477.97478329393243,0.02631578947368418
11,480.77226162332545,0.02631578947368418
12,483.56973995271846,0.02631578947368418
13,486.36721828211193,0.02631578947368418
14,489.16469661150495,0.02631578947368418
15,491.9621749408984,0.02631578947368418
16,494.75965327029144,0.02631578947368418
17,494.75965327029144,0.03289473684210531
18,497.5571315996849,0.03289473684210531
19,500.3546099290779,0.03289473684210531
20,503.1520882584714,0.03289473684210531
21,505.9495665878644,0.03289473684210531
22,508.7470449172579,0.03289473684210531
23,511.5445232466509,0.03289473684210531
24,511.5445232466509,0.03947368421052633
25,514.3420015760439,0.03947368421052633
26,517.1394799054374,0.03947368421052633
27,519.9369582348304,0.03947368421052633
28,519.9369582348304,0.046052631578947345
29,522.7344365642239,0.046052631578947345
30,525.5319148936169,0.052631578947368474
31,525.5319148936169,0.046052631578947345
32,528.3293932230104,0.052631578947368474
33,531.1268715524034,0.05921052631578949
34,531.1268715524034,0.052631578947368474
35,533.9243498817968,0.06578947368421051
36,533.9243498817968,0.05921052631578949
37,536.7218282111899,0.06578947368421051
38,539.5193065405833,0.06578947368421051
39,542.3167848699763,0.06578947368421051
40,545.1142631993694,0.06578947368421051
41,545.1142631993694,0.05921052631578949
42,547.9117415287628,0.05921052631578949
43,550.7092198581558,0.05921052631578949
44,553.5066981875493,0.05921052631578949
45,556.3041765169423,0.05921052631578949
46,559.1016548463358,0.052631578947368474
47,559.1016548463358,0.05921052631578949
48,561.8991331757288,0.052631578947368474
49,564.6966115051223,0.052631578947368474
50,567.4940898345153,0.052631578947368474
51,567.4940898345153,0.046052631578947345
52,570.2915681639088,0.046052631578947345
53,573.0890464933018,0.046052631578947345
54,573.0890464933018,0.03947368421052633
55,575.8865248226948,0.03947368421052633
56,578.6840031520883,0.03947368421052633
57,581.4814814814813,0.03947368421052633
58,581.4814814814813,0.03289473684210531
59,584.2789598108748,0.03289473684210531
60,587.0764381402678,0.03289473684210531
61,589.8739164696613,0.03289473684210531
62,589.8739164696613,0.02631578947368418
63,592.6713947990543,0.02631578947368418
64,595.4688731284477,0.02631578947368418
65,598.2663514578408,0.02631578947368418
66,601.0638297872342,0.02631578947368418
67,603.8613081166272,0.02631578947368418
68,606.6587864460207,0.02631578947368418
69,609.4562647754137,0.02631578947368418
70,612.2537431048067,0.02631578947368418
71,615.0512214342002,0.02631578947368418
72,615.0512214342002,0.03289473684210531
73,617.8486997635932,0.03289473684210531
74,620.6461780929867,0.02631578947368418
75,620.6461780929867,0.03289473684210531
76,623.4436564223797,0.02631578947368418
77,626.2411347517732,0.02631578947368418
78,629.0386130811662,0.02631578947368418
79,631.8360914105597,0.019736842105263164
80,631.8360914105597,0.02631578947368418
81,634.6335697399527,0.019736842105263164
82,637.4310480693462,0.019736842105263164
83,640.2285263987392,0.019736842105263164
84,643.0260047281322,0.019736842105263164
85,645.8234830575257,0.019736842105263164
86,648.6209613869187,0.019736842105263164
87,651.4184397163122,0.019736842105263164
88,654.2159180457052,0.02631578947368418
89,654.2159180457052,0.019736842105263164
90,657.0133963750986,0.02631578947368418
91,659.8108747044917,0.03289473684210531
92,659.8108747044917,0.02631578947368418
93,662.6083530338851,0.03947368421052633
94,662.6083530338851,0.03289473684210531
95,665.4058313632781,0.03947368421052633
96,665.4058313632781,0.046052631578947345
97,668.2033096926716,0.052631578947368474
98,668.2033096926716,0.046052631578947345
99,671.0007880220646,0.052631578947368474
100,671.0007880220646,0.05921052631578949
101,673.7982663514576,0.05921052631578949
102,673.7982663514576,0.06578947368421051
103,676.5957446808511,0.07236842105263153
104,676.5957446808511,0.06578947368421051
105,676.5957446808511,0.07894736842105265
106,679.3932230102441,0.08552631578947367
107,679.3932230102441,0.07894736842105265
108,682.1907013396376,0.09210526315789469
109,682.1907013396376,0.09868421052631582
110,682.1907013396376,0.08552631578947367
111,684.9881796690306,0.11184210526315785
112,684.9881796690306,0.09868421052631582
113,684.9881796690306,0.10526315789473684
114,687.7856579984241,0.19736842105263153
115,687.7856579984241,0.15131578947368418
116,687.7856579984241,0.14473684210526316
117,687.7856579984241,0.1907894736842105
118,687.7856579984241,0.16447368421052633
119,687.7856579984241,0.13815789473684215
120,687.7856579984241,0.1842105263157895
121,687.7856579984241,0.13157894736842102
122,687.7856579984241,0.17105263157894735
123,687.7856579984241,0.125
124,687.7856579984241,0.17763157894736847
125,687.7856579984241,0.11184210526315785
126,687.7856579984241,0.1578947368421053
127,687.7856579984241,0.11842105263157898
128,690.5831363278171,0.3157894736842105
129,690.5831363278171,0.23684210526315785
130,690.5831363278171,0.29605263157894735
131,690.5831363278171,0.3092105263157895
132,690.5831363278171,0.3026315789473685
133,690.5831363278171,0.2763157894736842
134,690.5831363278171,0.19736842105263153
135,690.5831363278171,0.24342105263157898
136,690.5831363278171,0.25
137,690.5831363278171,0.256578947368421
138,690.5831363278171,0.26315789473684215
139,690.5831363278171,0.26973684210526316
140,690.5831363278171,0.2894736842105263
141,690.5831363278171,0.20394736842105265
142,690.5831363278171,0.21052631578947367
143,690.5831363278171,0.23026315789473684
144,690.5831363278171,0.2171052631578947
145,690.5831363278171,0.2828947368421053
146,690.5831363278171,0.3421052631578947
147,690.5831363278171,0.3486842105263158
148,690.5831363278171,0.3355263157894737
149,690.5831363278171,0.22368421052631582
150,690.5831363278171,0.32894736842105265
151,690.5831363278171,0.3223684210526315
152,693.3806146572106,0.4342105263157895
153,693.3806146572106,0.5
154,693.3806146572106,0.5723684210526316
155,693.3806146572106,0.4736842105263158
156,693.3806146572106,0.5394736842105263
157,693.3806146572106,0.5263157894736843
158,693.3806146572106,0.5328947368421053
159,693.3806146572106,0.48684210526315785
160,693.3806146572106,0.5460526315789473
161,693.3806146572106,0.5592105263157895
162,693.3806146572106,0.4671052631578947
163,693.3806146572106,0.4407894736842105
164,693.3806146572106,0.4473684210526315
165,693.3806146572106,0.5526315789473684
166,693.3806146572106,0.5657894736842105
167,693.3806146572106,0.513157894736842
168,693.3806146572106,0.45394736842105265
169,693.3806146572106,0.506578947368421
170,693.3806146572106,0.4605263157894737
171,693.3806146572106,0.5197368421052632
172,693.3806146572106,0.493421052631579
173,693.3806146572106,0.4276315789473685
174,693.3806146572106,0.5855263157894737
175,693.3806146572106,0.868421052631579
176,693.3806146572106,0.8618421052631579
177,693.3806146572106,0.8552631578947368
178,693.3806146572106,0.8486842105263158
179,693.3806146572106,0.8421052631578947
180,693.3806146572106,0.8355263157894737
181,693.3806146572106,0.8289473684210527
182,693.3806146572106,0.8223684210526316
183,693.3806146572106,0.8157894736842105
184,693.3806146572106,0.8092105263157895
185,693.3806146572106,0.8026315789473684
186,693.3806146572106,0.7960526315789473
187,693.3806146572106,0.7894736842105263
188,693.3806146572106,0.7828947368421053
189,693.3806146572106,0.7763157894736842
190,693.3806146572106,0.875
191,693.3806146572106,0.881578947368421
192,693.3806146572106,0.8881578947368421
193,693.3806146572106,0.8947368421052632
194,693.3806146572106,1.0
195,693.3806146572106,0.993421052631579
196,693.3806146572106,0.9868421052631579
197,693.3806146572106,0.9802631578947368
198,693.3806146572106,0.9736842105263158
199,693.3806146572106,0.9671052631578947
200,693.3806146572106,0.9605263157894737
201,693.3806146572106,0.7697368421052632
202,693.3806146572106,0.9539473684210527
203,693.3806146572106,0.9407894736842105
204,693.3806146572106,0.9342105263157895
205,693.3806146572106,0.9276315789473684
206,693.3806146572106,0.9210526315789473
207,693.3806146572106,0.9144736842105263
208,693.3806146572106,0.9078947368421053
209,693.3806146572106,0.9013157894736842
210,693.3806146572106,0.9473684210526316
211,693.3806146572106,0.7631578947368421
212,693.3806146572106,0.756578947368421
213,693.3806146572106,0.3486842105263158
214,693.3806146572106,0.6513157894736843
215,693.3806146572106,0.38815789473684215
216,693.3806146572106,0.6447368421052632
217,693.3806146572106,0.39473684210526316
218,693.3806146572106,0.638157894736842
219,693.3806146572106,0.631578947368421
220,693.3806146572106,0.4013157894736842
221,693.3806146572106,0.6578947368421053
222,693.3806146572106,0.625
223,693.3806146572106,0.4078947368421053
224,693.3806146572106,0.611842105263158
225,693.3806146572106,0.4144736842105263
226,693.3806146572106,0.6052631578947368
227,693.3806146572106,0.5986842105263157
228,693.3806146572106,0.5921052631578947
229,693.3806146572106,0.42105263157894735
230,693.3806146572106,0.618421052631579
231,693.3806146572106,0.5789473684210527
232,693.3806146572106,0.381578947368421
233,693.3806146572106,0.6710526315789473
234,693.3806146572106,0.75
235,693.3806146572106,0.743421052631579
236,693.3806146572106,0.736842105263158
237,693.3806146572106,0.35526315789473684
238,693.3806146572106,0.7302631578947368
239,693.3806146572106,0.7236842105263157
240,693.3806146572106,0.36184210526315785
241,693.3806146572106,0.6644736842105263
242,693.3806146572106,0.7171052631578947
243,693.3806146572106,0.7039473684210527
244,693.3806146572106,0.368421052631579
245,693.3806146572106,0.6973684210526316
246,693.3806146572106,0.6907894736842105
247,693.3806146572106,0.6842105263157895
248,693.3806146572106,0.375
249,693.3806146572106,0.6776315789473684
250,693.3806146572106,0.7105263157894737
251,693.3806146572106,0.48026315789473684
252,696.1780929866036,1.0
253,696.1780929866036,0.8355263157894737
254,696.1780929866036,0.7960526315789473
255,696.1780929866036,0.8026315789473684
256,696.1780929866036,0.8092105263157895
257,696.1780929866036,0.8157894736842105
258,696.1780929866036,0.8223684210526316
259,696.1780929866036,0.8289473684210527
260,696.1780929866036,0.8421052631578947
261,696.1780929866036,0.8486842105263158
262,696.1780929866036,0.8552631578947368
263,696.1780929866036,0.8618421052631579
264,696.1780929866036,0.868421052631579
265,696.1780929866036,0.881578947368421
266,696.1780929866036,0.8881578947368421
267,696.1780929866036,0.8947368421052632
268,696.1780929866036,0.875
269,696.1780929866036,0.9078947368421053
270,696.1780929866036,0.993421052631579
271,696.1780929866036,0.9868421052631579
272,696.1780929866036,0.9802631578947368
273,696.1780929866036,0.9736842105263158
274,696.1780929866036,0.9013157894736842
275,696.1780929866036,0.9605263157894737
276,696.1780929866036,0.9539473684210527
277,696.1780929866036,0.9671052631578947
278,696.1780929866036,0.9407894736842105
279,696.1780929866036,0.9342105263157895
280,696.1780929866036,0.9276315789473684
281,696.1780929866036,0.9210526315789473
282,696.1780929866036,0.9144736842105263
283,696.1780929866036,0.9473684210526316
284,698.9755713159971,0.6973684210526316
285,698.9755713159971,0.6644736842105263
286,698.9755713159971,0.368421052631579
287,698.9755713159971,0.6907894736842105
288,698.9755713159971,0.6842105263157895
289,698.9755713159971,0.6776315789473684
290,698.9755713159971,0.375
291,698.9755713159971,0.6710526315789473
292,698.9755713159971,0.6578947368421053
293,698.9755713159971,0.48684210526315785
294,698.9755713159971,0.6513157894736843
295,698.9755713159971,0.38815789473684215
296,698.9755713159971,0.6447368421052632
297,698.9755713159971,0.638157894736842
298,698.9755713159971,0.39473684210526316
299,698.9755713159971,0.631578947368421
300,698.9755713159971,0.4013157894736842
301,698.9755713159971,0.7039473684210527
302,698.9755713159971,0.381578947368421
303,698.9755713159971,0.7105263157894737
304,698.9755713159971,0.7894736842105263
305,698.9755713159971,0.7171052631578947
306,698.9755713159971,0.32894736842105265
307,698.9755713159971,0.7960526315789473
308,698.9755713159971,0.3355263157894737
309,698.9755713159971,0.625
310,698.9755713159971,0.7828947368421053
311,698.9755713159971,0.7763157894736842
312,698.9755713159971,0.3421052631578947
313,698.9755713159971,0.48026315789473684
314,698.9755713159971,0.7631578947368421
315,698.9755713159971,0.756578947368421
316,698.9755713159971,0.75
317,698.9755713159971,0.3486842105263158
318,698.9755713159971,0.743421052631579
319,698.9755713159971,0.736842105263158
320,698.9755713159971,0.7302631578947368
321,698.9755713159971,0.35526315789473684
322,698.9755713159971,0.7236842105263157
323,698.9755713159971,0.36184210526315785
324,698.9755713159971,0.618421052631579
325,698.9755713159971,0.7697368421052632
326,698.9755713159971,0.5789473684210527
327,698.9755713159971,0.5394736842105263
328,698.9755713159971,0.4342105263157895
329,698.9755713159971,0.5723684210526316
330,698.9755713159971,0.5460526315789473
331,698.9755713159971,0.6052631578947368
332,698.9755713159971,0.4144736842105263
333,698.9755713159971,0.5526315789473684
334,698.9755713159971,0.5592105263157895
335,698.9755713159971,0.5986842105263157
336,698.9755713159971,0.5921052631578947
337,698.9755713159971,0.4605263157894737
338,698.9755713159971,0.5657894736842105
339,698.9755713159971,0.506578947368421
340,698.9755713159971,0.5855263157894737
341,698.9755713159971,0.42105263157894735
342,698.9755713159971,0.45394736842105265
343,698.9755713159971,0.4276315789473685
344,698.9755713159971,0.5328947368421053
345,698.9755713159971,0.513157894736842
346,698.9755713159971,0.4671052631578947
347,698.9755713159971,0.493421052631579
348,698.9755713159971,0.5
349,698.9755713159971,0.4473684210526315
350,698.9755713159971,0.5263157894736843
351,698.9755713159971,0.5197368421052632
352,698.9755713159971,0.4407894736842105
353,698.9755713159971,0.4736842105263158
354,698.9755713159971,0.611842105263158
355,698.9755713159971,0.4078947368421053
356,701.7730496453901,0.256578947368421
357,701.7730496453901,0.29605263157894735
358,701.7730496453901,0.3223684210526315
359,701.7730496453901,0.26315789473684215
360,701.7730496453901,0.32894736842105265
361,701.7730496453901,0.3157894736842105
362,701.7730496453901,0.3026315789473685
363,701.7730496453901,0.26973684210526316
364,701.7730496453901,0.2894736842105263
365,701.7730496453901,0.21052631578947367
366,701.7730496453901,0.3092105263157895
367,701.7730496453901,0.2763157894736842
368,701.7730496453901,0.2171052631578947
369,701.7730496453901,0.24342105263157898
370,701.7730496453901,0.25
371,701.7730496453901,0.2828947368421053
372,701.7730496453901,0.22368421052631582
373,701.7730496453901,0.23684210526315785
374,701.7730496453901,0.23026315789473684
375,704.5705279747831,0.1842105263157895
376,704.5705279747831,0.17763157894736847
377,704.5705279747831,0.17105263157894735
378,704.5705279747831,0.16447368421052633
379,704.5705279747831,0.15131578947368418
380,704.5705279747831,0.20394736842105265
381,704.5705279747831,0.1907894736842105
382,704.5705279747831,0.14473684210526316
383,704.5705279747831,0.19736842105263153
384,704.5705279747831,0.1578947368421053
385,704.5705279747831,0.21052631578947367
386,707.3680063041766,0.11842105263157898
387,707.3680063041766,0.10526315789473684
388,707.3680063041766,0.13157894736842102
389,707.3680063041766,0.11184210526315785
390,707.3680063041766,0.09868421052631582
391,707.3680063041766,0.14473684210526316
392,707.3680063041766,0.13815789473684215
393,707.3680063041766,0.125
394,710.1654846335696,0.09868421052631582
395,710.1654846335696,0.09210526315789469
396,712.962962962963,0.08552631578947367
397,712.962962962963,0.09210526315789469
398,715.7604412923561,0.08552631578947367
399,715.7604412923561,0.09210526315789469
400,718.5579196217495,0.09210526315789469
401,721.3553979511425,0.09210526315789469
402,724.152876280536,0.09210526315789469
403,726.950354609929,0.09210526315789469
404,729.7478329393225,0.09210526315789469
405,732.5453112687155,0.09868421052631582
406,732.5453112687155,0.09210526315789469
407,735.3427895981085,0.10526315789473684
408,735.3427895981085,0.09868421052631582
409,738.140267927502,0.11184210526315785
410,738.140267927502,0.10526315789473684
411,740.937746256895,0.11184210526315785
412,740.937746256895,0.11842105263157898
413,740.937746256895,0.125
414,743.7352245862885,0.14473684210526316
415,743.7352245862885,0.13815789473684215
416,743.7352245862885,0.125
417,743.7352245862885,0.13157894736842102
418,743.7352245862885,0.15131578947368418
419,746.5327029156815,0.1578947368421053
420,746.5327029156815,0.15131578947368418
421,746.5327029156815,0.17105263157894735
422,746.5327029156815,0.16447368421052633
423,749.330181245075,0.19736842105263153
424,749.330181245075,0.20394736842105265
425,749.330181245075,0.1842105263157895
426,749.330181245075,0.1907894736842105
427,749.330181245075,0.22368421052631582
428,749.330181245075,0.2171052631578947
429,749.330181245075,0.21052631578947367
430,749.330181245075,0.17763157894736847
431,749.330181245075,0.17105263157894735
432,752.127659574468,0.26315789473684215
433,752.127659574468,0.256578947368421
434,752.127659574468,0.22368421052631582
435,752.127659574468,0.24342105263157898
436,752.127659574468,0.23684210526315785
437,752.127659574468,0.23026315789473684
438,752.127659574468,0.25
439,754.9251379038615,0.256578947368421
440,754.9251379038615,0.2763157894736842
441,754.9251379038615,0.26315789473684215
442,754.9251379038615,0.26973684210526316
443,757.7226162332545,0.25
444,757.7226162332545,0.23684210526315785
445,757.7226162332545,0.256578947368421
446,757.7226162332545,0.23026315789473684
447,757.7226162332545,0.24342105263157898
448,757.7226162332545,0.26315789473684215
449,760.520094562648,0.23026315789473684
450,760.520094562648,0.19736842105263153
451,760.520094562648,0.20394736842105265
452,760.520094562648,0.21052631578947367
453,760.520094562648,0.2171052631578947
454,760.520094562648,0.22368421052631582
455,763.317572892041,0.1842105263157895
456,763.317572892041,0.19736842105263153
457,763.317572892041,0.17763157894736847
458,763.317572892041,0.17105263157894735
459,763.317572892041,0.16447368421052633
460,763.317572892041,0.1578947368421053
461,763.317572892041,0.15131578947368418
462,763.317572892041,0.14473684210526316
463,763.317572892041,0.13815789473684215
464,763.317572892041,0.1907894736842105
465,763.317572892041,0.13157894736842102
466,766.115051221434,0.11842105263157898
467,766.115051221434,0.13157894736842102
468,766.115051221434,0.11184210526315785
469,766.115051221434,0.125
470,766.115051221434,0.10526315789473684
471,768.9125295508275,0.07236842105263153
472,768.9125295508275,0.09210526315789469
473,768.9125295508275,0.08552631578947367
474,768.9125295508275,0.09868421052631582
475,768.9125295508275,0.07894736842105265
476,768.9125295508275,0.10526315789473684
477,771.7100078802205,0.05921052631578949
478,771.7100078802205,0.06578947368421051
479,771.7100078802205,0.07236842105263153
