,wavenumbers,absorbance
0,452.797478329393,0.019736842105263164
1,452.797478329393,0.02631578947368418
2,455.5949566587865,0.02631578947368418
3,458.3924349881795,0.02631578947368418
4,461.189913317573,0.02631578947368418
5,463.987391646966,0.019736842105263164
6,463.987391646966,0.02631578947368418
7,466.78486997635946,0.019736842105263164
8,469.5823483057525,0.019736842105263164
9,469.5823483057525,0.02631578947368418
10,472.37982663514595,0.019736842105263164
11,475.17730496453896,0.019736842105263164
12,475.17730496453896,0.02631578947368418
13,477.97478329393243,0.02631578947368418
14,480.77226162332545,0.02631578947368418
15,480.77226162332545,0.019736842105263164
16,483.56973995271846,0.019736842105263164
17,486.36721828211193,0.019736842105263164
18,489.16469661150495,0.019736842105263164
19,491.9621749408984,0.019736842105263164
20,494.75965327029144,0.019736842105263164
21,497.5571315996849,0.019736842105263164
22,500.3546099290779,0.019736842105263164
23,503.1520882584714,0.019736842105263164
24,505.9495665878644,0.019736842105263164
25,508.7470449172579,0.019736842105263164
26,511.5445232466509,0.019736842105263164
27,514.3420015760439,0.019736842105263164
28,517.1394799054374,0.019736842105263164
29,519.9369582348304,0.019736842105263164
30,522.7344365642239,0.019736842105263164
31,525.5319148936169,0.019736842105263164
32,528.3293932230104,0.019736842105263164
33,531.1268715524034,0.019736842105263164
34,533.9243498817968,0.019736842105263164
35,536.7218282111899,0.019736842105263164
36,539.5193065405833,0.02631578947368418
37,539.5193065405833,0.019736842105263164
38,542.3167848699763,0.02631578947368418
39,545.1142631993694,0.02631578947368418
40,547.9117415287628,0.02631578947368418
41,550.7092198581558,0.02631578947368418
42,553.5066981875493,0.02631578947368418
43,556.3041765169423,0.02631578947368418
44,559.1016548463358,0.02631578947368418
45,561.8991331757288,0.02631578947368418
46,564.6966115051223,0.02631578947368418
47,567.4940898345153,0.03289473684210531
48,567.4940898345153,0.02631578947368418
49,570.2915681639088,0.03289473684210531
50,573.0890464933018,0.03289473684210531
51,575.8865248226948,0.03289473684210531
52,578.6840031520883,0.03289473684210531
53,581.4814814814813,0.03947368421052633
54,581.4814814814813,0.03289473684210531
55,584.2789598108748,0.03947368421052633
56,587.0764381402678,0.03947368421052633
57,589.8739164696613,0.046052631578947345
58,589.8739164696613,0.03947368421052633
59,592.6713947990543,0.046052631578947345
60,592.6713947990543,0.03947368421052633
61,595.4688731284477,0.03947368421052633
62,595.4688731284477,0.03289473684210531
63,595.4688731284477,0.02631578947368418
64,598.2663514578408,0.02631578947368418
65,601.0638297872342,0.019736842105263164
66,601.0638297872342,0.02631578947368418
67,603.8613081166272,0.019736842105263164
68,606.6587864460207,0.019736842105263164
69,609.4562647754137,0.019736842105263164
70,612.2537431048067,0.019736842105263164
71,615.0512214342002,0.019736842105263164
72,617.8486997635932,0.019736842105263164
73,620.6461780929867,0.019736842105263164
74,623.4436564223797,0.019736842105263164
75,626.2411347517732,0.019736842105263164
76,626.2411347517732,0.02631578947368418
77,629.0386130811662,0.02631578947368418
78,631.8360914105597,0.02631578947368418
79,634.6335697399527,0.02631578947368418
80,634.6335697399527,0.03289473684210531
81,637.4310480693462,0.03289473684210531
82,637.4310480693462,0.03947368421052633
83,640.2285263987392,0.03289473684210531
84,640.2285263987392,0.03947368421052633
85,643.0260047281322,0.03289473684210531
86,645.8234830575257,0.03289473684210531
87,645.8234830575257,0.03947368421052633
88,648.6209613869187,0.052631578947368474
89,648.6209613869187,0.03947368421052633
90,648.6209613869187,0.046052631578947345
91,651.4184397163122,0.07236842105263153
92,651.4184397163122,0.06578947368421051
93,651.4184397163122,0.052631578947368474
94,651.4184397163122,0.05921052631578949
95,654.2159180457052,0.046052631578947345
96,654.2159180457052,0.052631578947368474
97,654.2159180457052,0.05921052631578949
98,654.2159180457052,0.06578947368421051
99,657.0133963750986,0.046052631578947345
100,659.8108747044917,0.046052631578947345
101,659.8108747044917,0.052631578947368474
102,662.6083530338851,0.052631578947368474
103,665.4058313632781,0.052631578947368474
104,668.2033096926716,0.052631578947368474
105,668.2033096926716,0.05921052631578949
106,671.0007880220646,0.05921052631578949
107,671.0007880220646,0.052631578947368474
108,673.7982663514576,0.052631578947368474
109,673.7982663514576,0.046052631578947345
110,676.5957446808511,0.046052631578947345
111,676.5957446808511,0.03947368421052633
112,679.3932230102441,0.03947368421052633
113,679.3932230102441,0.03289473684210531
114,682.1907013396376,0.03289473684210531
115,684.9881796690306,0.03289473684210531
116,687.7856579984241,0.03289473684210531
117,690.5831363278171,0.03289473684210531
118,693.3806146572106,0.03947368421052633
119,693.3806146572106,0.03289473684210531
120,693.3806146572106,0.046052631578947345
121,696.1780929866036,0.046052631578947345
122,696.1780929866036,0.05921052631578949
123,696.1780929866036,0.052631578947368474
124,698.9755713159971,0.07236842105263153
125,698.9755713159971,0.08552631578947367
126,698.9755713159971,0.05921052631578949
127,698.9755713159971,0.06578947368421051
128,698.9755713159971,0.07894736842105265
129,701.7730496453901,0.09868421052631582
130,701.7730496453901,0.09210526315789469
131,701.7730496453901,0.08552631578947367
132,704.5705279747831,0.10526315789473684
133,704.5705279747831,0.09868421052631582
134,707.3680063041766,0.11842105263157898
135,707.3680063041766,0.11184210526315785
136,707.3680063041766,0.10526315789473684
137,710.1654846335696,0.11842105263157898
138,712.962962962963,0.11184210526315785
139,712.962962962963,0.11842105263157898
140,715.7604412923561,0.11842105263157898
141,715.7604412923561,0.125
142,718.5579196217495,0.23026315789473684
143,718.5579196217495,0.20394736842105265
144,718.5579196217495,0.19736842105263153
145,718.5579196217495,0.125
146,718.5579196217495,0.24342105263157898
147,718.5579196217495,0.16447368421052633
148,718.5579196217495,0.15131578947368418
149,718.5579196217495,0.17105263157894735
150,718.5579196217495,0.17763157894736847
151,718.5579196217495,0.23684210526315785
152,718.5579196217495,0.22368421052631582
153,718.5579196217495,0.13815789473684215
154,718.5579196217495,0.1578947368421053
155,718.5579196217495,0.2171052631578947
156,718.5579196217495,0.13157894736842102
157,718.5579196217495,0.14473684210526316
158,718.5579196217495,0.1907894736842105
159,718.5579196217495,0.21052631578947367
160,718.5579196217495,0.1842105263157895
161,721.3553979511425,0.3486842105263158
162,721.3553979511425,0.256578947368421
163,721.3553979511425,0.32894736842105265
164,721.3553979511425,0.24342105263157898
165,721.3553979511425,0.3092105263157895
166,721.3553979511425,0.3421052631578947
167,721.3553979511425,0.3223684210526315
168,721.3553979511425,0.3157894736842105
169,721.3553979511425,0.25
170,721.3553979511425,0.26315789473684215
171,721.3553979511425,0.3355263157894737
172,721.3553979511425,0.2828947368421053
173,721.3553979511425,0.26973684210526316
174,721.3553979511425,0.3026315789473685
175,721.3553979511425,0.2894736842105263
176,721.3553979511425,0.2763157894736842
177,721.3553979511425,0.35526315789473684
178,721.3553979511425,0.29605263157894735
179,724.152876280536,0.381578947368421
180,724.152876280536,0.36184210526315785
181,724.152876280536,0.39473684210526316
182,724.152876280536,0.4342105263157895
183,724.152876280536,0.4473684210526315
184,724.152876280536,0.4013157894736842
185,724.152876280536,0.4407894736842105
186,724.152876280536,0.4078947368421053
187,724.152876280536,0.4276315789473685
188,724.152876280536,0.35526315789473684
189,724.152876280536,0.375
190,724.152876280536,0.368421052631579
191,724.152876280536,0.38815789473684215
192,724.152876280536,0.42105263157894735
193,724.152876280536,0.4144736842105263
194,726.950354609929,0.4407894736842105
195,726.950354609929,0.4276315789473685
196,726.950354609929,0.4342105263157895
197,726.950354609929,0.42105263157894735
198,726.950354609929,0.4473684210526315
199,729.7478329393225,0.381578947368421
200,729.7478329393225,0.38815789473684215
201,729.7478329393225,0.39473684210526316
202,729.7478329393225,0.4144736842105263
203,729.7478329393225,0.368421052631579
204,729.7478329393225,0.42105263157894735
205,729.7478329393225,0.36184210526315785
206,729.7478329393225,0.375
207,729.7478329393225,0.4013157894736842
208,729.7478329393225,0.4078947368421053
209,732.5453112687155,0.3223684210526315
210,732.5453112687155,0.36184210526315785
211,732.5453112687155,0.256578947368421
212,732.5453112687155,0.32894736842105265
213,732.5453112687155,0.3355263157894737
214,732.5453112687155,0.25
215,732.5453112687155,0.2894736842105263
216,732.5453112687155,0.3157894736842105
217,732.5453112687155,0.22368421052631582
218,732.5453112687155,0.24342105263157898
219,732.5453112687155,0.3486842105263158
220,732.5453112687155,0.23026315789473684
221,732.5453112687155,0.26973684210526316
222,732.5453112687155,0.2763157894736842
223,732.5453112687155,0.19736842105263153
224,732.5453112687155,0.29605263157894735
225,732.5453112687155,0.20394736842105265
226,732.5453112687155,0.26315789473684215
227,732.5453112687155,0.3092105263157895
228,732.5453112687155,0.3421052631578947
229,732.5453112687155,0.35526315789473684
230,732.5453112687155,0.23684210526315785
231,732.5453112687155,0.3026315789473685
232,732.5453112687155,0.2171052631578947
233,732.5453112687155,0.21052631578947367
234,732.5453112687155,0.2828947368421053
235,735.3427895981085,0.15131578947368418
236,735.3427895981085,0.19736842105263153
237,735.3427895981085,0.1907894736842105
238,735.3427895981085,0.125
239,735.3427895981085,0.13157894736842102
240,735.3427895981085,0.16447368421052633
241,735.3427895981085,0.14473684210526316
242,735.3427895981085,0.17763157894736847
243,735.3427895981085,0.13815789473684215
244,735.3427895981085,0.17105263157894735
245,735.3427895981085,0.1842105263157895
246,735.3427895981085,0.1578947368421053
247,738.140267927502,0.05921052631578949
248,738.140267927502,0.09868421052631582
249,738.140267927502,0.09210526315789469
250,738.140267927502,0.08552631578947367
251,738.140267927502,0.11184210526315785
252,738.140267927502,0.10526315789473684
253,738.140267927502,0.06578947368421051
254,738.140267927502,0.125
255,738.140267927502,0.07894736842105265
256,738.140267927502,0.11842105263157898
257,738.140267927502,0.07236842105263153
258,740.937746256895,0.052631578947368474
259,740.937746256895,0.05921052631578949
260,743.7352245862885,0.046052631578947345
261,743.7352245862885,0.052631578947368474
262,743.7352245862885,0.03947368421052633
263,746.5327029156815,0.03947368421052633
264,749.330181245075,0.03947368421052633
265,752.127659574468,0.03947368421052633
266,754.9251379038615,0.03947368421052633
267,754.9251379038615,0.046052631578947345
268,757.7226162332545,0.046052631578947345
269,760.520094562648,0.052631578947368474
270,760.520094562648,0.046052631578947345
271,763.317572892041,0.06578947368421051
272,763.317572892041,0.052631578947368474
273,763.317572892041,0.05921052631578949
274,763.317572892041,0.07894736842105265
275,763.317572892041,0.07236842105263153
276,766.115051221434,0.07894736842105265
277,766.115051221434,0.09210526315789469
278,766.115051221434,0.08552631578947367
279,768.9125295508275,0.09210526315789469
280,768.9125295508275,0.09868421052631582
281,771.7100078802205,0.09210526315789469
282,771.7100078802205,0.07894736842105265
283,771.7100078802205,0.08552631578947367
284,774.507486209614,0.07236842105263153
285,774.507486209614,0.07894736842105265
286,774.507486209614,0.05921052631578949
287,774.507486209614,0.06578947368421051
288,774.507486209614,0.052631578947368474
289,777.304964539007,0.052631578947368474
290,780.1024428684004,0.046052631578947345
291,780.1024428684004,0.052631578947368474
292,782.8999211977934,0.03947368421052633
293,782.8999211977934,0.046052631578947345
294,785.6973995271869,0.03289473684210531
295,785.6973995271869,0.03947368421052633
296,788.4948778565799,0.03289473684210531
297,791.2923561859734,0.03289473684210531
298,794.0898345153664,0.03289473684210531
299,796.8873128447594,0.03289473684210531
300,799.6847911741529,0.02631578947368418
301,799.6847911741529,0.03289473684210531
302,802.4822695035459,0.02631578947368418
303,805.2797478329394,0.02631578947368418
304,808.0772261623324,0.02631578947368418
305,810.8747044917259,0.02631578947368418
306,810.8747044917259,0.03289473684210531
307,813.6721828211189,0.03289473684210531
308,816.4696611505124,0.03289473684210531
309,816.4696611505124,0.03947368421052633
310,819.2671394799054,0.03947368421052633
311,819.2671394799054,0.046052631578947345
312,822.0646178092989,0.046052631578947345
313,824.8620961386919,0.046052631578947345
314,827.6595744680849,0.046052631578947345
315,830.4570527974784,0.046052631578947345
316,830.4570527974784,0.03289473684210531
317,830.4570527974784,0.03947368421052633
318,833.2545311268714,0.03289473684210531
319,836.0520094562648,0.02631578947368418
320,836.0520094562648,0.03289473684210531
321,838.8494877856579,0.02631578947368418
322,841.6469661150513,0.02631578947368418
323,844.4444444444443,0.02631578947368418
324,847.2419227738378,0.02631578947368418
325,850.0394011032308,0.02631578947368418
326,852.8368794326243,0.02631578947368418
327,855.6343577620173,0.02631578947368418
328,858.4318360914103,0.02631578947368418
329,861.2293144208038,0.02631578947368418
330,864.0267927501968,0.02631578947368418
331,866.8242710795903,0.03289473684210531
332,866.8242710795903,0.02631578947368418
333,869.6217494089833,0.03289473684210531
334,872.4192277383768,0.03289473684210531
335,875.2167060677698,0.03947368421052633
336,875.2167060677698,0.03289473684210531
337,878.0141843971633,0.046052631578947345
338,878.0141843971633,0.03947368421052633
339,880.8116627265563,0.046052631578947345
340,883.6091410559497,0.046052631578947345
341,883.6091410559497,0.052631578947368474
342,886.4066193853428,0.052631578947368474
343,889.2040977147362,0.052631578947368474
344,892.0015760441293,0.052631578947368474
345,894.7990543735223,0.052631578947368474
346,897.5965327029157,0.052631578947368474
347,900.3940110323088,0.052631578947368474
348,903.1914893617022,0.05921052631578949
349,903.1914893617022,0.052631578947368474
350,905.9889676910952,0.05921052631578949
351,908.7864460204887,0.06578947368421051
352,908.7864460204887,0.05921052631578949
353,911.5839243498817,0.06578947368421051
354,914.3814026792752,0.06578947368421051
355,914.3814026792752,0.07236842105263153
356,917.1788810086682,0.07236842105263153
357,917.1788810086682,0.07894736842105265
358,919.9763593380617,0.07894736842105265
359,919.9763593380617,0.08552631578947367
360,922.7738376674547,0.08552631578947367
361,922.7738376674547,0.09868421052631582
362,922.7738376674547,0.09210526315789469
363,925.5713159968477,0.09868421052631582
364,925.5713159968477,0.10526315789473684
365,928.3687943262412,0.11184210526315785
366,928.3687943262412,0.10526315789473684
367,931.1662726556342,0.11184210526315785
368,933.9637509850277,0.11842105263157898
369,933.9637509850277,0.11184210526315785
370,936.7612293144207,0.11842105263157898
371,936.7612293144207,0.11184210526315785
372,939.5587076438142,0.11184210526315785
373,942.3561859732072,0.11184210526315785
374,945.1536643026006,0.11184210526315785
375,945.1536643026006,0.11842105263157898
376,947.9511426319937,0.11842105263157898
377,950.7486209613871,0.11842105263157898
378,953.5460992907801,0.11842105263157898
379,956.3435776201732,0.11842105263157898
380,959.1410559495666,0.125
381,959.1410559495666,0.11842105263157898
382,961.9385342789597,0.14473684210526316
383,961.9385342789597,0.13815789473684215
384,961.9385342789597,0.125
385,961.9385342789597,0.13157894736842102
386,964.7360126083531,0.16447368421052633
387,964.7360126083531,0.1578947368421053
388,964.7360126083531,0.14473684210526316
389,964.7360126083531,0.15131578947368418
390,967.5334909377461,0.1842105263157895
391,967.5334909377461,0.17763157894736847
392,967.5334909377461,0.17105263157894735
393,967.5334909377461,0.19736842105263153
394,967.5334909377461,0.1907894736842105
395,967.5334909377461,0.21052631578947367
396,967.5334909377461,0.16447368421052633
397,967.5334909377461,0.20394736842105265
398,970.3309692671396,0.23026315789473684
399,970.3309692671396,0.2171052631578947
400,970.3309692671396,0.21052631578947367
401,970.3309692671396,0.23684210526315785
402,970.3309692671396,0.22368421052631582
403,973.1284475965326,0.26973684210526316
404,973.1284475965326,0.23684210526315785
405,973.1284475965326,0.256578947368421
406,973.1284475965326,0.26315789473684215
407,973.1284475965326,0.25
408,973.1284475965326,0.24342105263157898
409,975.9259259259261,0.26973684210526316
410,975.9259259259261,0.2763157894736842
411,978.7234042553191,0.2828947368421053
412,978.7234042553191,0.2763157894736842
413,981.5208825847126,0.2828947368421053
414,984.3183609141056,0.2828947368421053
415,987.1158392434986,0.26315789473684215
416,987.1158392434986,0.2763157894736842
417,987.1158392434986,0.26973684210526316
418,987.1158392434986,0.2828947368421053
419,989.9133175728921,0.26315789473684215
420,989.9133175728921,0.256578947368421
421,989.9133175728921,0.25
422,992.7107959022851,0.23026315789473684
423,992.7107959022851,0.22368421052631582
424,992.7107959022851,0.25
425,992.7107959022851,0.24342105263157898
426,992.7107959022851,0.23684210526315785
427,995.5082742316786,0.2171052631578947
428,995.5082742316786,0.22368421052631582
429,998.3057525610716,0.22368421052631582
430,998.3057525610716,0.2171052631578947
431,1001.103230890465,0.21052631578947367
432,1001.103230890465,0.2171052631578947
433,1003.9007092198581,0.21052631578947367
434,1003.9007092198581,0.2171052631578947
435,1006.6981875492515,0.2171052631578947
436,1009.4956658786446,0.2171052631578947
437,1012.293144208038,0.2171052631578947
438,1015.090622537431,0.22368421052631582
439,1015.090622537431,0.2171052631578947
440,1017.8881008668241,0.22368421052631582
441,1017.8881008668241,0.23026315789473684
442,1020.6855791962175,0.22368421052631582
443,1020.6855791962175,0.23026315789473684
444,1023.4830575256105,0.2171052631578947
445,1023.4830575256105,0.22368421052631582
446,1023.4830575256105,0.20394736842105265
447,1023.4830575256105,0.21052631578947367
448,1026.280535855004,0.19736842105263153
449,1026.280535855004,0.1907894736842105
450,1026.280535855004,0.1842105263157895
451,1026.280535855004,0.20394736842105265
452,1029.078014184397,0.17763157894736847
453,1029.078014184397,0.1842105263157895
454,1029.078014184397,0.16447368421052633
455,1029.078014184397,0.1578947368421053
456,1029.078014184397,0.14473684210526316
457,1029.078014184397,0.15131578947368418
458,1029.078014184397,0.17105263157894735
459,1031.8754925137905,0.14473684210526316
460,1031.8754925137905,0.13815789473684215
461,1031.8754925137905,0.13157894736842102
462,1034.6729708431835,0.10526315789473684
463,1034.6729708431835,0.13157894736842102
464,1034.6729708431835,0.11184210526315785
465,1034.6729708431835,0.125
466,1034.6729708431835,0.11842105263157898
467,1037.470449172577,0.10526315789473684
468,1037.470449172577,0.09868421052631582
469,1040.26792750197,0.09210526315789469
470,1040.26792750197,0.09868421052631582
471,1043.0654058313635,0.09210526315789469
