,wavenumbers,absorbance
0,452.797478329393,0.02631578947368418
1,455.5949566587865,0.03289473684210531
2,455.5949566587865,0.02631578947368418
3,458.3924349881795,0.03289473684210531
4,461.189913317573,0.03289473684210531
5,463.987391646966,0.02631578947368418
6,463.987391646966,0.03289473684210531
7,466.78486997635946,0.02631578947368418
8,469.5823483057525,0.02631578947368418
9,472.37982663514595,0.03289473684210531
10,472.37982663514595,0.02631578947368418
11,475.17730496453896,0.03289473684210531
12,477.97478329393243,0.03289473684210531
13,480.77226162332545,0.03289473684210531
14,483.56973995271846,0.03289473684210531
15,483.56973995271846,0.03947368421052633
16,486.36721828211193,0.03947368421052633
17,489.16469661150495,0.03947368421052633
18,491.9621749408984,0.03947368421052633
19,494.75965327029144,0.03947368421052633
20,497.5571315996849,0.03947368421052633
21,500.3546099290779,0.03947368421052633
22,503.1520882584714,0.03947368421052633
23,505.9495665878644,0.03947368421052633
24,505.9495665878644,0.03289473684210531
25,508.7470449172579,0.03289473684210531
26,511.5445232466509,0.03289473684210531
27,514.3420015760439,0.03289473684210531
28,517.1394799054374,0.03289473684210531
29,519.9369582348304,0.03289473684210531
30,522.7344365642239,0.03289473684210531
31,525.5319148936169,0.03289473684210531
32,528.3293932230104,0.03289473684210531
33,531.1268715524034,0.03289473684210531
34,533.9243498817968,0.03289473684210531
35,536.7218282111899,0.03289473684210531
36,539.5193065405833,0.03289473684210531
37,542.3167848699763,0.03289473684210531
38,545.1142631993694,0.03289473684210531
39,547.9117415287628,0.03289473684210531
40,550.7092198581558,0.03289473684210531
41,553.5066981875493,0.03289473684210531
42,556.3041765169423,0.03289473684210531
43,559.1016548463358,0.03289473684210531
44,561.8991331757288,0.03289473684210531
45,564.6966115051223,0.02631578947368418
46,564.6966115051223,0.03289473684210531
47,567.4940898345153,0.02631578947368418
48,570.2915681639088,0.02631578947368418
49,573.0890464933018,0.02631578947368418
50,573.0890464933018,0.019736842105263164
51,575.8865248226948,0.019736842105263164
52,578.6840031520883,0.019736842105263164
53,581.4814814814813,0.019736842105263164
54,584.2789598108748,0.019736842105263164
55,587.0764381402678,0.019736842105263164
56,589.8739164696613,0.019736842105263164
57,592.6713947990543,0.019736842105263164
58,595.4688731284477,0.019736842105263164
59,598.2663514578408,0.019736842105263164
60,601.0638297872342,0.019736842105263164
61,603.8613081166272,0.019736842105263164
62,606.6587864460207,0.019736842105263164
63,606.6587864460207,0.02631578947368418
64,609.4562647754137,0.02631578947368418
65,612.2537431048067,0.02631578947368418
66,615.0512214342002,0.02631578947368418
67,617.8486997635932,0.02631578947368418
68,620.6461780929867,0.02631578947368418
69,623.4436564223797,0.02631578947368418
70,626.2411347517732,0.02631578947368418
71,629.0386130811662,0.019736842105263164
72,631.8360914105597,0.019736842105263164
73,634.6335697399527,0.019736842105263164
74,637.4310480693462,0.019736842105263164
75,640.2285263987392,0.019736842105263164
76,643.0260047281322,0.019736842105263164
77,645.8234830575257,0.019736842105263164
78,645.8234830575257,0.02631578947368418
79,648.6209613869187,0.019736842105263164
80,648.6209613869187,0.02631578947368418
81,651.4184397163122,0.02631578947368418
82,651.4184397163122,0.019736842105263164
83,654.2159180457052,0.02631578947368418
84,657.0133963750986,0.03289473684210531
85,657.0133963750986,0.02631578947368418
86,659.8108747044917,0.03289473684210531
87,659.8108747044917,0.03947368421052633
88,662.6083530338851,0.03289473684210531
89,662.6083530338851,0.03947368421052633
90,665.4058313632781,0.03947368421052633
91,665.4058313632781,0.03289473684210531
92,668.2033096926716,0.03947368421052633
93,671.0007880220646,0.03947368421052633
94,673.7982663514576,0.03289473684210531
95,673.7982663514576,0.03947368421052633
96,676.5957446808511,0.03289473684210531
97,676.5957446808511,0.02631578947368418
98,679.3932230102441,0.02631578947368418
99,682.1907013396376,0.019736842105263164
100,682.1907013396376,0.02631578947368418
101,684.9881796690306,0.019736842105263164
102,687.7856579984241,0.019736842105263164
103,690.5831363278171,0.019736842105263164
104,690.5831363278171,0.02631578947368418
105,693.3806146572106,0.019736842105263164
106,693.3806146572106,0.02631578947368418
107,696.1780929866036,0.019736842105263164
108,696.1780929866036,0.02631578947368418
109,698.9755713159971,0.019736842105263164
110,701.7730496453901,0.02631578947368418
111,701.7730496453901,0.019736842105263164
112,704.5705279747831,0.02631578947368418
113,704.5705279747831,0.019736842105263164
114,707.3680063041766,0.019736842105263164
115,707.3680063041766,0.02631578947368418
116,710.1654846335696,0.019736842105263164
117,712.962962962963,0.019736842105263164
118,715.7604412923561,0.019736842105263164
119,718.5579196217495,0.019736842105263164
120,721.3553979511425,0.019736842105263164
121,724.152876280536,0.019736842105263164
122,726.950354609929,0.019736842105263164
123,729.7478329393225,0.019736842105263164
124,732.5453112687155,0.019736842105263164
125,732.5453112687155,0.02631578947368418
126,735.3427895981085,0.02631578947368418
127,738.140267927502,0.02631578947368418
128,738.140267927502,0.019736842105263164
129,740.937746256895,0.019736842105263164
130,743.7352245862885,0.02631578947368418
131,743.7352245862885,0.019736842105263164
132,746.5327029156815,0.019736842105263164
133,749.330181245075,0.019736842105263164
134,749.330181245075,0.02631578947368418
135,752.127659574468,0.02631578947368418
136,754.9251379038615,0.02631578947368418
137,757.7226162332545,0.02631578947368418
138,757.7226162332545,0.03289473684210531
139,760.520094562648,0.03289473684210531
140,763.317572892041,0.03289473684210531
141,766.115051221434,0.03289473684210531
142,768.9125295508275,0.03947368421052633
143,768.9125295508275,0.03289473684210531
144,771.7100078802205,0.03947368421052633
145,774.507486209614,0.052631578947368474
146,774.507486209614,0.046052631578947345
147,774.507486209614,0.03947368421052633
148,777.304964539007,0.052631578947368474
149,777.304964539007,0.05921052631578949
150,780.1024428684004,0.06578947368421051
151,780.1024428684004,0.05921052631578949
152,782.8999211977934,0.052631578947368474
153,782.8999211977934,0.05921052631578949
154,785.6973995271869,0.052631578947368474
155,788.4948778565799,0.052631578947368474
156,791.2923561859734,0.052631578947368474
157,794.0898345153664,0.06578947368421051
158,794.0898345153664,0.05921052631578949
159,794.0898345153664,0.052631578947368474
160,796.8873128447594,0.07236842105263153
161,796.8873128447594,0.08552631578947367
162,796.8873128447594,0.07894736842105265
163,796.8873128447594,0.06578947368421051
164,799.6847911741529,0.14473684210526316
165,799.6847911741529,0.08552631578947367
166,799.6847911741529,0.13157894736842102
167,799.6847911741529,0.125
168,799.6847911741529,0.11842105263157898
169,799.6847911741529,0.11184210526315785
170,799.6847911741529,0.10526315789473684
171,799.6847911741529,0.15131578947368418
172,799.6847911741529,0.13815789473684215
173,799.6847911741529,0.09210526315789469
174,799.6847911741529,0.16447368421052633
175,799.6847911741529,0.09868421052631582
176,799.6847911741529,0.17105263157894735
177,799.6847911741529,0.1578947368421053
178,802.4822695035459,0.23684210526315785
179,802.4822695035459,0.22368421052631582
180,802.4822695035459,0.2171052631578947
181,802.4822695035459,0.21052631578947367
182,802.4822695035459,0.20394736842105265
183,802.4822695035459,0.19736842105263153
184,802.4822695035459,0.1907894736842105
185,802.4822695035459,0.17105263157894735
186,802.4822695035459,0.1842105263157895
187,802.4822695035459,0.17763157894736847
188,802.4822695035459,0.23026315789473684
189,805.2797478329394,0.256578947368421
190,805.2797478329394,0.2763157894736842
191,805.2797478329394,0.26973684210526316
192,805.2797478329394,0.26315789473684215
193,805.2797478329394,0.23684210526315785
194,805.2797478329394,0.24342105263157898
195,805.2797478329394,0.25
196,808.0772261623324,0.2171052631578947
197,808.0772261623324,0.256578947368421
198,808.0772261623324,0.26973684210526316
199,808.0772261623324,0.23684210526315785
200,808.0772261623324,0.23026315789473684
201,808.0772261623324,0.25
202,808.0772261623324,0.24342105263157898
203,808.0772261623324,0.22368421052631582
204,808.0772261623324,0.26315789473684215
205,810.8747044917259,0.20394736842105265
206,810.8747044917259,0.16447368421052633
207,810.8747044917259,0.13815789473684215
208,810.8747044917259,0.1578947368421053
209,810.8747044917259,0.19736842105263153
210,810.8747044917259,0.15131578947368418
211,810.8747044917259,0.13157894736842102
212,810.8747044917259,0.1907894736842105
213,810.8747044917259,0.125
214,810.8747044917259,0.17105263157894735
215,810.8747044917259,0.11842105263157898
216,810.8747044917259,0.2171052631578947
217,810.8747044917259,0.17763157894736847
218,810.8747044917259,0.1842105263157895
219,810.8747044917259,0.21052631578947367
220,810.8747044917259,0.14473684210526316
221,813.6721828211189,0.11842105263157898
222,813.6721828211189,0.09210526315789469
223,813.6721828211189,0.11184210526315785
224,813.6721828211189,0.10526315789473684
225,813.6721828211189,0.09868421052631582
226,816.4696611505124,0.07894736842105265
227,816.4696611505124,0.06578947368421051
228,816.4696611505124,0.08552631578947367
229,816.4696611505124,0.07236842105263153
230,816.4696611505124,0.09210526315789469
231,819.2671394799054,0.06578947368421051
232,819.2671394799054,0.05921052631578949
233,822.0646178092989,0.052631578947368474
234,822.0646178092989,0.05921052631578949
235,824.8620961386919,0.052631578947368474
236,827.6595744680849,0.052631578947368474
237,827.6595744680849,0.046052631578947345
238,830.4570527974784,0.052631578947368474
239,830.4570527974784,0.046052631578947345
240,833.2545311268714,0.052631578947368474
241,836.0520094562648,0.052631578947368474
242,836.0520094562648,0.05921052631578949
243,838.8494877856579,0.052631578947368474
244,838.8494877856579,0.05921052631578949
245,841.6469661150513,0.05921052631578949
246,841.6469661150513,0.052631578947368474
247,844.4444444444443,0.05921052631578949
248,847.2419227738378,0.06578947368421051
249,847.2419227738378,0.05921052631578949
250,850.0394011032308,0.05921052631578949
251,850.0394011032308,0.06578947368421051
252,852.8368794326243,0.06578947368421051
253,855.6343577620173,0.07236842105263153
254,855.6343577620173,0.06578947368421051
255,858.4318360914103,0.06578947368421051
256,858.4318360914103,0.07236842105263153
257,861.2293144208038,0.06578947368421051
258,861.2293144208038,0.07236842105263153
259,864.0267927501968,0.07236842105263153
260,866.8242710795903,0.07236842105263153
261,869.6217494089833,0.07894736842105265
262,869.6217494089833,0.07236842105263153
263,872.4192277383768,0.07894736842105265
264,875.2167060677698,0.07894736842105265
265,875.2167060677698,0.08552631578947367
266,878.0141843971633,0.07894736842105265
267,878.0141843971633,0.08552631578947367
268,880.8116627265563,0.07894736842105265
269,880.8116627265563,0.08552631578947367
270,883.6091410559497,0.08552631578947367
271,883.6091410559497,0.07894736842105265
272,886.4066193853428,0.07894736842105265
273,889.2040977147362,0.07894736842105265
274,889.2040977147362,0.07236842105263153
275,892.0015760441293,0.07236842105263153
276,894.7990543735223,0.07236842105263153
277,897.5965327029157,0.07236842105263153
278,900.3940110323088,0.07236842105263153
279,903.1914893617022,0.07236842105263153
280,905.9889676910952,0.07236842105263153
281,908.7864460204887,0.07236842105263153
282,911.5839243498817,0.07236842105263153
283,914.3814026792752,0.07236842105263153
284,917.1788810086682,0.07894736842105265
285,917.1788810086682,0.07236842105263153
286,919.9763593380617,0.07894736842105265
287,922.7738376674547,0.08552631578947367
288,922.7738376674547,0.07894736842105265
289,925.5713159968477,0.08552631578947367
290,928.3687943262412,0.08552631578947367
291,931.1662726556342,0.08552631578947367
292,933.9637509850277,0.08552631578947367
293,936.7612293144207,0.08552631578947367
294,939.5587076438142,0.08552631578947367
295,939.5587076438142,0.09210526315789469
296,942.3561859732072,0.08552631578947367
297,942.3561859732072,0.09868421052631582
298,942.3561859732072,0.09210526315789469
299,945.1536643026006,0.09868421052631582
300,947.9511426319937,0.11184210526315785
301,947.9511426319937,0.10526315789473684
302,947.9511426319937,0.09868421052631582
303,950.7486209613871,0.125
304,950.7486209613871,0.11842105263157898
305,950.7486209613871,0.11184210526315785
306,953.5460992907801,0.13157894736842102
307,953.5460992907801,0.13815789473684215
308,953.5460992907801,0.125
309,953.5460992907801,0.14473684210526316
310,956.3435776201732,0.16447368421052633
311,956.3435776201732,0.14473684210526316
312,956.3435776201732,0.1578947368421053
313,956.3435776201732,0.15131578947368418
314,959.1410559495666,0.1842105263157895
315,959.1410559495666,0.17763157894736847
316,959.1410559495666,0.17105263157894735
317,959.1410559495666,0.16447368421052633
318,961.9385342789597,0.20394736842105265
319,961.9385342789597,0.1842105263157895
320,961.9385342789597,0.1907894736842105
321,961.9385342789597,0.19736842105263153
322,964.7360126083531,0.21052631578947367
323,964.7360126083531,0.20394736842105265
324,967.5334909377461,0.21052631578947367
325,970.3309692671396,0.2171052631578947
326,970.3309692671396,0.21052631578947367
327,973.1284475965326,0.23684210526315785
328,973.1284475965326,0.2171052631578947
329,973.1284475965326,0.22368421052631582
330,973.1284475965326,0.23026315789473684
331,975.9259259259261,0.25
332,975.9259259259261,0.24342105263157898
333,975.9259259259261,0.23684210526315785
334,975.9259259259261,0.256578947368421
335,978.7234042553191,0.29605263157894735
336,978.7234042553191,0.256578947368421
337,978.7234042553191,0.2828947368421053
338,978.7234042553191,0.2763157894736842
339,978.7234042553191,0.26973684210526316
340,978.7234042553191,0.26315789473684215
341,978.7234042553191,0.2894736842105263
342,981.5208825847126,0.29605263157894735
343,984.3183609141056,0.2894736842105263
344,984.3183609141056,0.29605263157894735
345,987.1158392434986,0.2828947368421053
346,987.1158392434986,0.2894736842105263
347,987.1158392434986,0.2763157894736842
348,987.1158392434986,0.256578947368421
349,987.1158392434986,0.26973684210526316
350,987.1158392434986,0.26315789473684215
351,989.9133175728921,0.23684210526315785
352,989.9133175728921,0.24342105263157898
353,989.9133175728921,0.25
354,989.9133175728921,0.256578947368421
355,992.7107959022851,0.20394736842105265
356,992.7107959022851,0.23684210526315785
357,992.7107959022851,0.23026315789473684
358,992.7107959022851,0.21052631578947367
359,992.7107959022851,0.22368421052631582
360,992.7107959022851,0.2171052631578947
361,995.5082742316786,0.1907894736842105
362,995.5082742316786,0.20394736842105265
363,995.5082742316786,0.19736842105263153
364,998.3057525610716,0.1907894736842105
365,998.3057525610716,0.1842105263157895
366,998.3057525610716,0.17763157894736847
367,998.3057525610716,0.17105263157894735
368,1001.103230890465,0.16447368421052633
369,1001.103230890465,0.17105263157894735
370,1003.9007092198581,0.16447368421052633
371,1003.9007092198581,0.15131578947368418
372,1003.9007092198581,0.14473684210526316
373,1003.9007092198581,0.1578947368421053
374,1006.6981875492515,0.14473684210526316
375,1006.6981875492515,0.13815789473684215
376,1009.4956658786446,0.13815789473684215
377,1009.4956658786446,0.13157894736842102
378,1012.293144208038,0.125
379,1012.293144208038,0.13157894736842102
380,1015.090622537431,0.125
381,1017.8881008668241,0.125
382,1020.6855791962175,0.125
383,1020.6855791962175,0.13157894736842102
384,1023.4830575256105,0.14473684210526316
385,1023.4830575256105,0.13815789473684215
386,1023.4830575256105,0.13157894736842102
387,1026.280535855004,0.15131578947368418
388,1026.280535855004,0.14473684210526316
389,1029.078014184397,0.15131578947368418
390,1029.078014184397,0.16447368421052633
391,1029.078014184397,0.1578947368421053
392,1031.8754925137905,0.17105263157894735
393,1031.8754925137905,0.16447368421052633
394,1031.8754925137905,0.17763157894736847
395,1034.6729708431835,0.1907894736842105
396,1034.6729708431835,0.17763157894736847
397,1034.6729708431835,0.1842105263157895
398,1037.470449172577,0.19736842105263153
399,1037.470449172577,0.1907894736842105
400,1040.26792750197,0.19736842105263153
401,1040.26792750197,0.20394736842105265
402,1043.0654058313635,0.20394736842105265
403,1043.0654058313635,0.2171052631578947
404,1043.0654058313635,0.21052631578947367
405,1045.8628841607565,0.22368421052631582
406,1045.8628841607565,0.2171052631578947
407,1048.6603624901495,0.256578947368421
408,1048.6603624901495,0.22368421052631582
409,1048.6603624901495,0.23684210526315785
410,1048.6603624901495,0.25
411,1048.6603624901495,0.24342105263157898
412,1048.6603624901495,0.23026315789473684
413,1051.457840819543,0.2828947368421053
414,1051.457840819543,0.256578947368421
415,1051.457840819543,0.2763157894736842
416,1051.457840819543,0.26315789473684215
417,1051.457840819543,0.26973684210526316
418,1054.255319148936,0.2828947368421053
419,1054.255319148936,0.29605263157894735
420,1054.255319148936,0.3026315789473685
421,1054.255319148936,0.3092105263157895
422,1054.255319148936,0.3157894736842105
423,1054.255319148936,0.3223684210526315
424,1054.255319148936,0.2894736842105263
425,1054.255319148936,0.32894736842105265
426,1054.255319148936,0.3355263157894737
427,1057.0527974783295,0.3421052631578947
428,1057.0527974783295,0.3355263157894737
429,1057.0527974783295,0.35526315789473684
430,1057.0527974783295,0.3486842105263158
431,1059.8502758077225,0.35526315789473684
432,1059.8502758077225,0.36184210526315785
433,1059.8502758077225,0.368421052631579
434,1062.647754137116,0.368421052631579
435,1062.647754137116,0.35526315789473684
436,1062.647754137116,0.36184210526315785
437,1065.445232466509,0.3486842105263158
438,1065.445232466509,0.32894736842105265
439,1065.445232466509,0.3223684210526315
440,1065.445232466509,0.3092105263157895
441,1065.445232466509,0.3421052631578947
442,1065.445232466509,0.3026315789473685
443,1065.445232466509,0.3157894736842105
444,1065.445232466509,0.3355263157894737
445,1065.445232466509,0.35526315789473684
446,1068.2427107959024,0.2894736842105263
447,1068.2427107959024,0.26973684210526316
448,1068.2427107959024,0.3026315789473685
449,1068.2427107959024,0.29605263157894735
450,1068.2427107959024,0.2763157894736842
451,1068.2427107959024,0.2828947368421053
452,1071.0401891252955,0.23684210526315785
453,1071.0401891252955,0.256578947368421
454,1071.0401891252955,0.25
455,1071.0401891252955,0.26315789473684215
456,1071.0401891252955,0.24342105263157898
457,1071.0401891252955,0.26973684210526316
458,1073.837667454689,0.19736842105263153
459,1073.837667454689,0.2171052631578947
460,1073.837667454689,0.21052631578947367
461,1073.837667454689,0.22368421052631582
462,1073.837667454689,0.23026315789473684
463,1073.837667454689,0.20394736842105265
464,1073.837667454689,0.23684210526315785
465,1076.635145784082,0.1907894736842105
466,1076.635145784082,0.19736842105263153
467,1076.635145784082,0.1842105263157895
468,1079.432624113475,0.17763157894736847
469,1079.432624113475,0.1842105263157895
470,1082.2301024428684,0.1842105263157895
