,wavenumbers,absorbance
0,452.797478329393,0.02631578947368418
1,452.797478329393,0.03289473684210531
2,455.5949566587865,0.02631578947368418
3,458.3924349881795,0.019736842105263164
4,458.3924349881795,0.02631578947368418
5,461.189913317573,0.02631578947368418
6,463.987391646966,0.02631578947368418
7,463.987391646966,0.03289473684210531
8,466.78486997635946,0.03289473684210531
9,469.5823483057525,0.03289473684210531
10,469.5823483057525,0.03947368421052633
11,472.37982663514595,0.03947368421052633
12,475.17730496453896,0.03947368421052633
13,477.97478329393243,0.03947368421052633
14,480.77226162332545,0.03947368421052633
15,483.56973995271846,0.03947368421052633
16,486.36721828211193,0.03947368421052633
17,489.16469661150495,0.03947368421052633
18,491.9621749408984,0.03947368421052633
19,494.75965327029144,0.03947368421052633
20,497.5571315996849,0.03947368421052633
21,500.3546099290779,0.03947368421052633
22,503.1520882584714,0.03947368421052633
23,505.9495665878644,0.03947368421052633
24,508.7470449172579,0.03947368421052633
25,511.5445232466509,0.03947368421052633
26,514.3420015760439,0.03947368421052633
27,517.1394799054374,0.03947368421052633
28,519.9369582348304,0.03947368421052633
29,519.9369582348304,0.03289473684210531
30,522.7344365642239,0.03289473684210531
31,525.5319148936169,0.03289473684210531
32,528.3293932230104,0.03289473684210531
33,528.3293932230104,0.02631578947368418
34,531.1268715524034,0.02631578947368418
35,533.9243498817968,0.02631578947368418
36,533.9243498817968,0.03289473684210531
37,536.7218282111899,0.03289473684210531
38,539.5193065405833,0.03289473684210531
39,542.3167848699763,0.03289473684210531
40,545.1142631993694,0.03289473684210531
41,547.9117415287628,0.03289473684210531
42,547.9117415287628,0.03947368421052633
43,550.7092198581558,0.03947368421052633
44,553.5066981875493,0.03947368421052633
45,553.5066981875493,0.046052631578947345
46,556.3041765169423,0.046052631578947345
47,556.3041765169423,0.052631578947368474
48,559.1016548463358,0.052631578947368474
49,561.8991331757288,0.052631578947368474
50,561.8991331757288,0.05921052631578949
51,564.6966115051223,0.06578947368421051
52,564.6966115051223,0.05921052631578949
53,567.4940898345153,0.07236842105263153
54,567.4940898345153,0.06578947368421051
55,570.2915681639088,0.07236842105263153
56,573.0890464933018,0.07894736842105265
57,573.0890464933018,0.07236842105263153
58,575.8865248226948,0.07894736842105265
59,578.6840031520883,0.07894736842105265
60,578.6840031520883,0.08552631578947367
61,581.4814814814813,0.08552631578947367
62,584.2789598108748,0.08552631578947367
63,587.0764381402678,0.08552631578947367
64,589.8739164696613,0.08552631578947367
65,592.6713947990543,0.08552631578947367
66,592.6713947990543,0.07894736842105265
67,595.4688731284477,0.07894736842105265
68,598.2663514578408,0.07894736842105265
69,601.0638297872342,0.07236842105263153
70,601.0638297872342,0.07894736842105265
71,603.8613081166272,0.07236842105263153
72,606.6587864460207,0.06578947368421051
73,606.6587864460207,0.07236842105263153
74,609.4562647754137,0.06578947368421051
75,612.2537431048067,0.06578947368421051
76,612.2537431048067,0.05921052631578949
77,615.0512214342002,0.05921052631578949
78,617.8486997635932,0.05921052631578949
79,620.6461780929867,0.05921052631578949
80,623.4436564223797,0.05921052631578949
81,623.4436564223797,0.052631578947368474
82,626.2411347517732,0.052631578947368474
83,629.0386130811662,0.052631578947368474
84,631.8360914105597,0.052631578947368474
85,634.6335697399527,0.052631578947368474
86,637.4310480693462,0.052631578947368474
87,640.2285263987392,0.05921052631578949
88,640.2285263987392,0.052631578947368474
89,643.0260047281322,0.05921052631578949
90,645.8234830575257,0.05921052631578949
91,648.6209613869187,0.05921052631578949
92,648.6209613869187,0.06578947368421051
93,651.4184397163122,0.06578947368421051
94,654.2159180457052,0.06578947368421051
95,657.0133963750986,0.06578947368421051
96,657.0133963750986,0.07236842105263153
97,659.8108747044917,0.07894736842105265
98,659.8108747044917,0.07236842105263153
99,662.6083530338851,0.08552631578947367
100,662.6083530338851,0.07894736842105265
101,665.4058313632781,0.08552631578947367
102,665.4058313632781,0.09210526315789469
103,668.2033096926716,0.09868421052631582
104,668.2033096926716,0.09210526315789469
105,671.0007880220646,0.10526315789473684
106,671.0007880220646,0.09868421052631582
107,673.7982663514576,0.10526315789473684
108,676.5957446808511,0.11184210526315785
109,676.5957446808511,0.11842105263157898
110,676.5957446808511,0.10526315789473684
111,679.3932230102441,0.11842105263157898
112,682.1907013396376,0.11842105263157898
113,682.1907013396376,0.125
114,682.1907013396376,0.13157894736842102
115,684.9881796690306,0.13815789473684215
116,684.9881796690306,0.13157894736842102
117,687.7856579984241,0.13815789473684215
118,690.5831363278171,0.13815789473684215
119,690.5831363278171,0.14473684210526316
120,693.3806146572106,0.14473684210526316
121,693.3806146572106,0.15131578947368418
122,696.1780929866036,0.1578947368421053
123,696.1780929866036,0.15131578947368418
124,698.9755713159971,0.16447368421052633
125,698.9755713159971,0.17105263157894735
126,698.9755713159971,0.1578947368421053
127,701.7730496453901,0.16447368421052633
128,701.7730496453901,0.17105263157894735
129,704.5705279747831,0.17105263157894735
130,704.5705279747831,0.16447368421052633
131,707.3680063041766,0.1842105263157895
132,707.3680063041766,0.17105263157894735
133,707.3680063041766,0.17763157894736847
134,710.1654846335696,0.1907894736842105
135,710.1654846335696,0.1842105263157895
136,712.962962962963,0.20394736842105265
137,712.962962962963,0.1907894736842105
138,712.962962962963,0.19736842105263153
139,715.7604412923561,0.20394736842105265
140,715.7604412923561,0.2171052631578947
141,715.7604412923561,0.21052631578947367
142,718.5579196217495,0.2171052631578947
143,718.5579196217495,0.22368421052631582
144,721.3553979511425,0.21052631578947367
145,721.3553979511425,0.2171052631578947
146,724.152876280536,0.20394736842105265
147,724.152876280536,0.21052631578947367
148,726.950354609929,0.20394736842105265
149,726.950354609929,0.19736842105263153
150,726.950354609929,0.1907894736842105
151,729.7478329393225,0.1842105263157895
152,729.7478329393225,0.1907894736842105
153,732.5453112687155,0.17763157894736847
154,732.5453112687155,0.1842105263157895
155,735.3427895981085,0.17105263157894735
156,735.3427895981085,0.17763157894736847
157,738.140267927502,0.16447368421052633
158,738.140267927502,0.17105263157894735
159,738.140267927502,0.1578947368421053
160,740.937746256895,0.15131578947368418
161,740.937746256895,0.1578947368421053
162,743.7352245862885,0.14473684210526316
163,743.7352245862885,0.15131578947368418
164,746.5327029156815,0.14473684210526316
165,749.330181245075,0.14473684210526316
166,752.127659574468,0.14473684210526316
167,754.9251379038615,0.14473684210526316
168,757.7226162332545,0.14473684210526316
169,757.7226162332545,0.15131578947368418
170,760.520094562648,0.15131578947368418
171,763.317572892041,0.15131578947368418
172,763.317572892041,0.1578947368421053
173,766.115051221434,0.15131578947368418
174,768.9125295508275,0.15131578947368418
175,768.9125295508275,0.1578947368421053
176,771.7100078802205,0.15131578947368418
177,774.507486209614,0.15131578947368418
178,774.507486209614,0.13815789473684215
179,774.507486209614,0.14473684210526316
180,777.304964539007,0.13815789473684215
181,780.1024428684004,0.13815789473684215
182,780.1024428684004,0.13157894736842102
183,782.8999211977934,0.13157894736842102
184,782.8999211977934,0.125
185,785.6973995271869,0.125
186,785.6973995271869,0.11842105263157898
187,788.4948778565799,0.11184210526315785
188,788.4948778565799,0.11842105263157898
189,791.2923561859734,0.11184210526315785
190,791.2923561859734,0.10526315789473684
191,794.0898345153664,0.09868421052631582
192,796.8873128447594,0.09868421052631582
193,796.8873128447594,0.09210526315789469
194,799.6847911741529,0.09868421052631582
195,799.6847911741529,0.09210526315789469
196,802.4822695035459,0.09210526315789469
197,802.4822695035459,0.10526315789473684
198,802.4822695035459,0.09868421052631582
199,805.2797478329394,0.09868421052631582
200,805.2797478329394,0.10526315789473684
201,808.0772261623324,0.10526315789473684
202,810.8747044917259,0.09868421052631582
203,810.8747044917259,0.10526315789473684
204,813.6721828211189,0.09210526315789469
205,813.6721828211189,0.09868421052631582
206,816.4696611505124,0.09210526315789469
207,819.2671394799054,0.08552631578947367
208,819.2671394799054,0.09210526315789469
209,822.0646178092989,0.07894736842105265
210,822.0646178092989,0.08552631578947367
211,824.8620961386919,0.07894736842105265
212,827.6595744680849,0.07236842105263153
213,827.6595744680849,0.07894736842105265
214,830.4570527974784,0.07236842105263153
215,833.2545311268714,0.07236842105263153
216,833.2545311268714,0.06578947368421051
217,836.0520094562648,0.07236842105263153
218,836.0520094562648,0.06578947368421051
219,838.8494877856579,0.06578947368421051
220,841.6469661150513,0.05921052631578949
221,841.6469661150513,0.06578947368421051
222,844.4444444444443,0.05921052631578949
223,847.2419227738378,0.05921052631578949
224,847.2419227738378,0.052631578947368474
225,850.0394011032308,0.052631578947368474
226,850.0394011032308,0.05921052631578949
227,850.0394011032308,0.046052631578947345
228,852.8368794326243,0.046052631578947345
229,852.8368794326243,0.05921052631578949
230,852.8368794326243,0.052631578947368474
231,855.6343577620173,0.046052631578947345
232,855.6343577620173,0.03947368421052633
233,858.4318360914103,0.03947368421052633
234,861.2293144208038,0.03947368421052633
235,864.0267927501968,0.03947368421052633
236,864.0267927501968,0.03289473684210531
237,866.8242710795903,0.03289473684210531
238,869.6217494089833,0.03289473684210531
239,869.6217494089833,0.02631578947368418
240,872.4192277383768,0.03289473684210531
241,872.4192277383768,0.02631578947368418
242,875.2167060677698,0.03289473684210531
243,875.2167060677698,0.02631578947368418
244,878.0141843971633,0.02631578947368418
245,878.0141843971633,0.019736842105263164
246,880.8116627265563,0.019736842105263164
247,883.6091410559497,0.013157894736842146
248,883.6091410559497,0.019736842105263164
249,886.4066193853428,0.013157894736842146
250,886.4066193853428,0.019736842105263164
251,889.2040977147362,0.02631578947368418
252,889.2040977147362,0.019736842105263164
253,892.0015760441293,0.02631578947368418
254,894.7990543735223,0.02631578947368418
255,897.5965327029157,0.02631578947368418
256,897.5965327029157,0.03947368421052633
257,897.5965327029157,0.03289473684210531
258,900.3940110323088,0.03947368421052633
259,903.1914893617022,0.03947368421052633
260,905.9889676910952,0.03947368421052633
261,905.9889676910952,0.052631578947368474
262,905.9889676910952,0.046052631578947345
263,908.7864460204887,0.052631578947368474
264,911.5839243498817,0.052631578947368474
265,914.3814026792752,0.052631578947368474
266,917.1788810086682,0.052631578947368474
267,917.1788810086682,0.046052631578947345
268,919.9763593380617,0.046052631578947345
269,922.7738376674547,0.03947368421052633
270,922.7738376674547,0.046052631578947345
271,925.5713159968477,0.03947368421052633
272,928.3687943262412,0.046052631578947345
273,928.3687943262412,0.03947368421052633
274,931.1662726556342,0.046052631578947345
275,933.9637509850277,0.052631578947368474
276,933.9637509850277,0.046052631578947345
277,936.7612293144207,0.052631578947368474
278,939.5587076438142,0.052631578947368474
279,942.3561859732072,0.05921052631578949
280,942.3561859732072,0.052631578947368474
281,945.1536643026006,0.05921052631578949
282,947.9511426319937,0.05921052631578949
283,947.9511426319937,0.052631578947368474
284,950.7486209613871,0.052631578947368474
285,953.5460992907801,0.046052631578947345
286,953.5460992907801,0.052631578947368474
287,956.3435776201732,0.052631578947368474
288,956.3435776201732,0.046052631578947345
289,959.1410559495666,0.052631578947368474
290,961.9385342789597,0.052631578947368474
291,964.7360126083531,0.052631578947368474
292,967.5334909377461,0.046052631578947345
293,967.5334909377461,0.052631578947368474
294,970.3309692671396,0.046052631578947345
295,973.1284475965326,0.052631578947368474
296,973.1284475965326,0.046052631578947345
297,975.9259259259261,0.052631578947368474
298,975.9259259259261,0.05921052631578949
299,978.7234042553191,0.05921052631578949
300,978.7234042553191,0.06578947368421051
301,981.5208825847126,0.07236842105263153
302,981.5208825847126,0.06578947368421051
303,984.3183609141056,0.07236842105263153
304,987.1158392434986,0.06578947368421051
305,987.1158392434986,0.07236842105263153
306,989.9133175728921,0.06578947368421051
307,992.7107959022851,0.07894736842105265
308,992.7107959022851,0.06578947368421051
309,992.7107959022851,0.07236842105263153
310,995.5082742316786,0.08552631578947367
311,995.5082742316786,0.07894736842105265
312,998.3057525610716,0.09210526315789469
313,998.3057525610716,0.10526315789473684
314,998.3057525610716,0.09868421052631582
315,998.3057525610716,0.08552631578947367
316,1001.103230890465,0.10526315789473684
317,1001.103230890465,0.11184210526315785
318,1001.103230890465,0.11842105263157898
319,1003.9007092198581,0.13157894736842102
320,1003.9007092198581,0.13815789473684215
321,1003.9007092198581,0.125
322,1003.9007092198581,0.11842105263157898
323,1003.9007092198581,0.14473684210526316
324,1006.6981875492515,0.15131578947368418
325,1006.6981875492515,0.14473684210526316
326,1009.4956658786446,0.14473684210526316
327,1009.4956658786446,0.13815789473684215
328,1009.4956658786446,0.15131578947368418
329,1009.4956658786446,0.13157894736842102
330,1012.293144208038,0.125
331,1012.293144208038,0.11842105263157898
332,1012.293144208038,0.13157894736842102
333,1015.090622537431,0.11184210526315785
334,1015.090622537431,0.11842105263157898
335,1017.8881008668241,0.09210526315789469
336,1017.8881008668241,0.10526315789473684
337,1017.8881008668241,0.11184210526315785
338,1017.8881008668241,0.09868421052631582
339,1020.6855791962175,0.09210526315789469
340,1023.4830575256105,0.09210526315789469
341,1023.4830575256105,0.09868421052631582
342,1026.280535855004,0.09210526315789469
343,1026.280535855004,0.09868421052631582
344,1029.078014184397,0.09210526315789469
345,1031.8754925137905,0.09210526315789469
346,1034.6729708431835,0.09210526315789469
347,1037.470449172577,0.09210526315789469
348,1040.26792750197,0.09868421052631582
349,1040.26792750197,0.09210526315789469
350,1043.0654058313635,0.09868421052631582
351,1045.8628841607565,0.09868421052631582
352,1048.6603624901495,0.09868421052631582
353,1048.6603624901495,0.10526315789473684
354,1048.6603624901495,0.11184210526315785
355,1051.457840819543,0.11184210526315785
356,1054.255319148936,0.11184210526315785
357,1054.255319148936,0.11842105263157898
358,1057.0527974783295,0.11842105263157898
359,1059.8502758077225,0.11842105263157898
360,1062.647754137116,0.11842105263157898
361,1065.445232466509,0.11842105263157898
362,1065.445232466509,0.125
363,1068.2427107959024,0.11842105263157898
364,1068.2427107959024,0.125
365,1071.0401891252955,0.125
366,1071.0401891252955,0.11842105263157898
367,1073.837667454689,0.125
368,1076.635145784082,0.11842105263157898
369,1076.635145784082,0.125
370,1079.432624113475,0.11842105263157898
371,1082.2301024428684,0.125
372,1082.2301024428684,0.11842105263157898
373,1085.0275807722614,0.125
374,1087.825059101655,0.125
375,1087.825059101655,0.13157894736842102
376,1090.622537431048,0.13157894736842102
377,1090.622537431048,0.125
378,1090.622537431048,0.13815789473684215
379,1093.4200157604414,0.14473684210526316
380,1093.4200157604414,0.13815789473684215
381,1096.2174940898344,0.15131578947368418
382,1096.2174940898344,0.1578947368421053
383,1096.2174940898344,0.14473684210526316
384,1099.014972419228,0.16447368421052633
385,1099.014972419228,0.1578947368421053
386,1101.812450748621,0.17105263157894735
387,1101.812450748621,0.17763157894736847
388,1101.812450748621,0.16447368421052633
389,1104.6099290780144,0.17763157894736847
390,1104.6099290780144,0.1907894736842105
391,1104.6099290780144,0.1842105263157895
392,1107.4074074074074,0.19736842105263153
393,1107.4074074074074,0.1907894736842105
394,1110.2048857368004,0.20394736842105265
395,1110.2048857368004,0.2171052631578947
396,1110.2048857368004,0.19736842105263153
397,1110.2048857368004,0.21052631578947367
398,1113.0023640661939,0.2171052631578947
399,1115.799842395587,0.2171052631578947
400,1115.799842395587,0.23026315789473684
401,1115.799842395587,0.22368421052631582
402,1118.5973207249804,0.23026315789473684
403,1121.3947990543734,0.23026315789473684
404,1121.3947990543734,0.23684210526315785
405,1124.1922773837669,0.23684210526315785
406,1126.9897557131599,0.23684210526315785
407,1129.7872340425533,0.23684210526315785
408,1132.5847123719464,0.23684210526315785
409,1135.3821907013398,0.24342105263157898
410,1135.3821907013398,0.23684210526315785
411,1138.1796690307328,0.24342105263157898
412,1140.9771473601263,0.23684210526315785
413,1140.9771473601263,0.24342105263157898
414,1143.7746256895193,0.23026315789473684
415,1143.7746256895193,0.23684210526315785
416,1146.5721040189123,0.22368421052631582
417,1146.5721040189123,0.2171052631578947
418,1146.5721040189123,0.23026315789473684
419,1149.3695823483058,0.2171052631578947
420,1149.3695823483058,0.21052631578947367
421,1152.1670606776988,0.21052631578947367
422,1154.9645390070923,0.21052631578947367
423,1157.7620173364853,0.20394736842105265
424,1157.7620173364853,0.21052631578947367
425,1160.5594956658788,0.20394736842105265
426,1160.5594956658788,0.19736842105263153
427,1160.5594956658788,0.1842105263157895
428,1160.5594956658788,0.1907894736842105
429,1163.3569739952718,0.1842105263157895
430,1163.3569739952718,0.17105263157894735
431,1163.3569739952718,0.17763157894736847
432,1166.1544523246653,0.16447368421052633
433,1166.1544523246653,0.17105263157894735
434,1166.1544523246653,0.15131578947368418
435,1166.1544523246653,0.14473684210526316
436,1166.1544523246653,0.1578947368421053
437,1168.9519306540583,0.14473684210526316
438,1168.9519306540583,0.13815789473684215
439,1171.7494089834518,0.13815789473684215
440,1171.7494089834518,0.13157894736842102
441,1174.5468873128448,0.13157894736842102
442,1174.5468873128448,0.13815789473684215
443,1177.3443656422378,0.13157894736842102
444,1177.3443656422378,0.13815789473684215
445,1180.1418439716313,0.13157894736842102
446,1182.9393223010243,0.125
447,1182.9393223010243,0.13157894736842102
448,1185.7368006304177,0.11842105263157898
449,1185.7368006304177,0.125
450,1188.5342789598108,0.11842105263157898
451,1191.3317572892042,0.11842105263157898
452,1191.3317572892042,0.125
453,1194.1292356185972,0.13157894736842102
454,1194.1292356185972,0.125
455,1196.9267139479907,0.13157894736842102
456,1196.9267139479907,0.13815789473684215
457,1196.9267139479907,0.14473684210526316
458,1199.7241922773837,0.15131578947368418
459,1199.7241922773837,0.14473684210526316
460,1202.5216706067772,0.15131578947368418
461,1202.5216706067772,0.1578947368421053
462,1205.3191489361702,0.1578947368421053
463,1205.3191489361702,0.16447368421052633
464,1208.1166272655632,0.16447368421052633
465,1210.9141055949567,0.16447368421052633
466,1210.9141055949567,0.17105263157894735
467,1213.7115839243497,0.17105263157894735
468,1216.5090622537432,0.17105263157894735
469,1216.5090622537432,0.17763157894736847
