,wavenumbers,absorbance
0,452.797478329393,0.019736842105263164
1,452.797478329393,0.02631578947368418
2,455.5949566587865,0.019736842105263164
3,458.3924349881795,0.019736842105263164
4,458.3924349881795,0.02631578947368418
5,461.189913317573,0.02631578947368418
6,463.987391646966,0.02631578947368418
7,466.78486997635946,0.02631578947368418
8,469.5823483057525,0.02631578947368418
9,472.37982663514595,0.02631578947368418
10,475.17730496453896,0.02631578947368418
11,477.97478329393243,0.02631578947368418
12,480.77226162332545,0.02631578947368418
13,483.56973995271846,0.02631578947368418
14,486.36721828211193,0.02631578947368418
15,489.16469661150495,0.02631578947368418
16,491.9621749408984,0.02631578947368418
17,494.75965327029144,0.02631578947368418
18,497.5571315996849,0.02631578947368418
19,500.3546099290779,0.019736842105263164
20,500.3546099290779,0.02631578947368418
21,503.1520882584714,0.019736842105263164
22,505.9495665878644,0.019736842105263164
23,505.9495665878644,0.02631578947368418
24,508.7470449172579,0.02631578947368418
25,511.5445232466509,0.02631578947368418
26,514.3420015760439,0.02631578947368418
27,517.1394799054374,0.02631578947368418
28,519.9369582348304,0.02631578947368418
29,522.7344365642239,0.02631578947368418
30,525.5319148936169,0.02631578947368418
31,525.5319148936169,0.03289473684210531
32,528.3293932230104,0.03289473684210531
33,531.1268715524034,0.03289473684210531
34,533.9243498817968,0.03289473684210531
35,536.7218282111899,0.03289473684210531
36,539.5193065405833,0.03289473684210531
37,539.5193065405833,0.02631578947368418
38,542.3167848699763,0.02631578947368418
39,545.1142631993694,0.02631578947368418
40,545.1142631993694,0.03289473684210531
41,547.9117415287628,0.02631578947368418
42,547.9117415287628,0.03289473684210531
43,550.7092198581558,0.02631578947368418
44,553.5066981875493,0.02631578947368418
45,556.3041765169423,0.02631578947368418
46,559.1016548463358,0.02631578947368418
47,561.8991331757288,0.02631578947368418
48,564.6966115051223,0.02631578947368418
49,567.4940898345153,0.02631578947368418
50,570.2915681639088,0.02631578947368418
51,573.0890464933018,0.02631578947368418
52,575.8865248226948,0.02631578947368418
53,578.6840031520883,0.02631578947368418
54,581.4814814814813,0.02631578947368418
55,584.2789598108748,0.02631578947368418
56,587.0764381402678,0.02631578947368418
57,589.8739164696613,0.02631578947368418
58,592.6713947990543,0.02631578947368418
59,595.4688731284477,0.02631578947368418
60,598.2663514578408,0.02631578947368418
61,601.0638297872342,0.02631578947368418
62,603.8613081166272,0.02631578947368418
63,606.6587864460207,0.02631578947368418
64,609.4562647754137,0.02631578947368418
65,612.2537431048067,0.02631578947368418
66,615.0512214342002,0.02631578947368418
67,617.8486997635932,0.02631578947368418
68,620.6461780929867,0.02631578947368418
69,623.4436564223797,0.02631578947368418
70,626.2411347517732,0.02631578947368418
71,629.0386130811662,0.02631578947368418
72,631.8360914105597,0.02631578947368418
73,634.6335697399527,0.02631578947368418
74,637.4310480693462,0.02631578947368418
75,640.2285263987392,0.02631578947368418
76,643.0260047281322,0.019736842105263164
77,643.0260047281322,0.02631578947368418
78,645.8234830575257,0.019736842105263164
79,648.6209613869187,0.019736842105263164
80,651.4184397163122,0.019736842105263164
81,654.2159180457052,0.019736842105263164
82,657.0133963750986,0.019736842105263164
83,659.8108747044917,0.019736842105263164
84,662.6083530338851,0.019736842105263164
85,665.4058313632781,0.019736842105263164
86,668.2033096926716,0.019736842105263164
87,671.0007880220646,0.019736842105263164
88,673.7982663514576,0.019736842105263164
89,676.5957446808511,0.019736842105263164
90,679.3932230102441,0.019736842105263164
91,682.1907013396376,0.019736842105263164
92,684.9881796690306,0.019736842105263164
93,687.7856579984241,0.019736842105263164
94,690.5831363278171,0.019736842105263164
95,690.5831363278171,0.02631578947368418
96,693.3806146572106,0.02631578947368418
97,696.1780929866036,0.03289473684210531
98,696.1780929866036,0.02631578947368418
99,698.9755713159971,0.03947368421052633
100,698.9755713159971,0.03289473684210531
101,701.7730496453901,0.03947368421052633
102,701.7730496453901,0.046052631578947345
103,704.5705279747831,0.046052631578947345
104,704.5705279747831,0.052631578947368474
105,707.3680063041766,0.052631578947368474
106,707.3680063041766,0.07236842105263153
107,707.3680063041766,0.08552631578947367
108,707.3680063041766,0.06578947368421051
109,707.3680063041766,0.05921052631578949
110,707.3680063041766,0.07894736842105265
111,710.1654846335696,0.09210526315789469
112,710.1654846335696,0.11842105263157898
113,710.1654846335696,0.09868421052631582
114,710.1654846335696,0.10526315789473684
115,710.1654846335696,0.08552631578947367
116,710.1654846335696,0.11184210526315785
117,712.962962962963,0.17763157894736847
118,712.962962962963,0.16447368421052633
119,712.962962962963,0.1907894736842105
120,712.962962962963,0.1842105263157895
121,712.962962962963,0.19736842105263153
122,712.962962962963,0.17105263157894735
123,712.962962962963,0.2171052631578947
124,712.962962962963,0.125
125,712.962962962963,0.15131578947368418
126,712.962962962963,0.11842105263157898
127,712.962962962963,0.13157894736842102
128,712.962962962963,0.14473684210526316
129,712.962962962963,0.25
130,712.962962962963,0.20394736842105265
131,712.962962962963,0.22368421052631582
132,712.962962962963,0.24342105263157898
133,712.962962962963,0.23026315789473684
134,712.962962962963,0.1578947368421053
135,712.962962962963,0.21052631578947367
136,712.962962962963,0.23684210526315785
137,712.962962962963,0.13815789473684215
138,715.7604412923561,0.25
139,715.7604412923561,0.256578947368421
140,718.5579196217495,0.24342105263157898
141,718.5579196217495,0.22368421052631582
142,718.5579196217495,0.1578947368421053
143,718.5579196217495,0.25
144,718.5579196217495,0.23684210526315785
145,718.5579196217495,0.23026315789473684
146,718.5579196217495,0.1842105263157895
147,718.5579196217495,0.20394736842105265
148,718.5579196217495,0.21052631578947367
149,718.5579196217495,0.19736842105263153
150,718.5579196217495,0.2171052631578947
151,718.5579196217495,0.17763157894736847
152,718.5579196217495,0.17105263157894735
153,718.5579196217495,0.16447368421052633
154,718.5579196217495,0.256578947368421
155,718.5579196217495,0.1907894736842105
156,721.3553979511425,0.15131578947368418
157,721.3553979511425,0.14473684210526316
158,721.3553979511425,0.1578947368421053
159,721.3553979511425,0.13815789473684215
160,724.152876280536,0.13815789473684215
161,724.152876280536,0.14473684210526316
162,724.152876280536,0.15131578947368418
163,726.950354609929,0.13157894736842102
164,726.950354609929,0.09868421052631582
165,726.950354609929,0.11842105263157898
166,726.950354609929,0.125
167,726.950354609929,0.11184210526315785
168,726.950354609929,0.15131578947368418
169,726.950354609929,0.14473684210526316
170,726.950354609929,0.13815789473684215
171,726.950354609929,0.10526315789473684
172,729.7478329393225,0.06578947368421051
173,729.7478329393225,0.08552631578947367
174,729.7478329393225,0.09868421052631582
175,729.7478329393225,0.09210526315789469
176,729.7478329393225,0.07236842105263153
177,729.7478329393225,0.07894736842105265
178,732.5453112687155,0.046052631578947345
179,732.5453112687155,0.06578947368421051
180,732.5453112687155,0.05921052631578949
181,732.5453112687155,0.052631578947368474
182,735.3427895981085,0.03947368421052633
183,735.3427895981085,0.046052631578947345
184,738.140267927502,0.03947368421052633
185,740.937746256895,0.03947368421052633
186,743.7352245862885,0.03289473684210531
187,743.7352245862885,0.03947368421052633
188,746.5327029156815,0.03289473684210531
189,749.330181245075,0.03289473684210531
190,752.127659574468,0.03289473684210531
191,754.9251379038615,0.03289473684210531
192,757.7226162332545,0.03289473684210531
193,760.520094562648,0.03289473684210531
194,763.317572892041,0.03289473684210531
195,766.115051221434,0.03289473684210531
196,768.9125295508275,0.03289473684210531
197,771.7100078802205,0.03289473684210531
198,774.507486209614,0.03289473684210531
199,777.304964539007,0.03289473684210531
200,780.1024428684004,0.03289473684210531
201,782.8999211977934,0.03289473684210531
202,785.6973995271869,0.03289473684210531
203,788.4948778565799,0.03289473684210531
204,788.4948778565799,0.02631578947368418
205,791.2923561859734,0.02631578947368418
206,794.0898345153664,0.02631578947368418
207,796.8873128447594,0.02631578947368418
208,799.6847911741529,0.02631578947368418
209,802.4822695035459,0.02631578947368418
210,805.2797478329394,0.02631578947368418
211,808.0772261623324,0.02631578947368418
212,808.0772261623324,0.019736842105263164
213,810.8747044917259,0.02631578947368418
214,810.8747044917259,0.019736842105263164
215,813.6721828211189,0.02631578947368418
216,816.4696611505124,0.02631578947368418
217,819.2671394799054,0.02631578947368418
218,822.0646178092989,0.02631578947368418
219,824.8620961386919,0.02631578947368418
220,827.6595744680849,0.02631578947368418
221,830.4570527974784,0.02631578947368418
222,833.2545311268714,0.02631578947368418
223,836.0520094562648,0.02631578947368418
224,838.8494877856579,0.02631578947368418
225,841.6469661150513,0.02631578947368418
226,844.4444444444443,0.02631578947368418
227,847.2419227738378,0.02631578947368418
228,850.0394011032308,0.02631578947368418
229,852.8368794326243,0.02631578947368418
230,855.6343577620173,0.02631578947368418
231,858.4318360914103,0.02631578947368418
232,861.2293144208038,0.02631578947368418
233,864.0267927501968,0.02631578947368418
234,866.8242710795903,0.02631578947368418
235,869.6217494089833,0.03289473684210531
236,869.6217494089833,0.02631578947368418
237,872.4192277383768,0.03289473684210531
238,875.2167060677698,0.03289473684210531
239,878.0141843971633,0.03289473684210531
240,880.8116627265563,0.03947368421052633
241,880.8116627265563,0.03289473684210531
242,883.6091410559497,0.03947368421052633
243,886.4066193853428,0.03947368421052633
244,889.2040977147362,0.03947368421052633
245,892.0015760441293,0.03947368421052633
246,894.7990543735223,0.03947368421052633
247,897.5965327029157,0.03947368421052633
248,900.3940110323088,0.03947368421052633
249,900.3940110323088,0.046052631578947345
250,903.1914893617022,0.046052631578947345
251,905.9889676910952,0.046052631578947345
252,908.7864460204887,0.046052631578947345
253,911.5839243498817,0.046052631578947345
254,914.3814026792752,0.046052631578947345
255,917.1788810086682,0.046052631578947345
256,917.1788810086682,0.052631578947368474
257,919.9763593380617,0.052631578947368474
258,922.7738376674547,0.052631578947368474
259,925.5713159968477,0.052631578947368474
260,928.3687943262412,0.052631578947368474
261,931.1662726556342,0.052631578947368474
262,933.9637509850277,0.052631578947368474
263,936.7612293144207,0.052631578947368474
264,939.5587076438142,0.052631578947368474
265,942.3561859732072,0.052631578947368474
266,945.1536643026006,0.052631578947368474
267,947.9511426319937,0.052631578947368474
268,950.7486209613871,0.046052631578947345
269,950.7486209613871,0.052631578947368474
270,953.5460992907801,0.046052631578947345
271,956.3435776201732,0.046052631578947345
272,959.1410559495666,0.046052631578947345
273,961.9385342789597,0.046052631578947345
274,964.7360126083531,0.046052631578947345
275,967.5334909377461,0.03947368421052633
276,967.5334909377461,0.046052631578947345
277,970.3309692671396,0.03947368421052633
278,973.1284475965326,0.03947368421052633
279,975.9259259259261,0.03289473684210531
280,975.9259259259261,0.03947368421052633
281,978.7234042553191,0.03289473684210531
282,981.5208825847126,0.03289473684210531
283,984.3183609141056,0.03289473684210531
284,987.1158392434986,0.03289473684210531
285,989.9133175728921,0.03289473684210531
286,989.9133175728921,0.03947368421052633
287,992.7107959022851,0.03947368421052633
288,992.7107959022851,0.03289473684210531
289,995.5082742316786,0.03947368421052633
290,998.3057525610716,0.03947368421052633
291,1001.103230890465,0.03947368421052633
292,1003.9007092198581,0.03947368421052633
293,1006.6981875492515,0.03947368421052633
294,1009.4956658786446,0.03947368421052633
295,1012.293144208038,0.03947368421052633
296,1015.090622537431,0.03947368421052633
297,1017.8881008668241,0.03947368421052633
298,1020.6855791962175,0.03947368421052633
299,1023.4830575256105,0.03947368421052633
300,1026.280535855004,0.03947368421052633
301,1029.078014184397,0.03947368421052633
302,1031.8754925137905,0.03947368421052633
303,1034.6729708431835,0.03947368421052633
304,1037.470449172577,0.03947368421052633
305,1040.26792750197,0.03947368421052633
306,1043.0654058313635,0.03947368421052633
307,1045.8628841607565,0.03947368421052633
308,1048.6603624901495,0.03947368421052633
309,1051.457840819543,0.03947368421052633
310,1054.255319148936,0.03947368421052633
311,1057.0527974783295,0.03947368421052633
312,1059.8502758077225,0.03947368421052633
313,1062.647754137116,0.03947368421052633
314,1065.445232466509,0.03947368421052633
315,1068.2427107959024,0.03947368421052633
316,1071.0401891252955,0.03947368421052633
317,1073.837667454689,0.03947368421052633
318,1073.837667454689,0.046052631578947345
319,1076.635145784082,0.046052631578947345
320,1079.432624113475,0.046052631578947345
321,1082.2301024428684,0.046052631578947345
322,1085.0275807722614,0.03947368421052633
323,1085.0275807722614,0.046052631578947345
324,1087.825059101655,0.03947368421052633
325,1090.622537431048,0.03947368421052633
326,1093.4200157604414,0.03947368421052633
327,1096.2174940898344,0.03947368421052633
328,1099.014972419228,0.03947368421052633
329,1101.812450748621,0.03947368421052633
330,1104.6099290780144,0.03947368421052633
331,1104.6099290780144,0.046052631578947345
332,1107.4074074074074,0.046052631578947345
333,1107.4074074074074,0.03947368421052633
334,1110.2048857368004,0.046052631578947345
335,1110.2048857368004,0.03947368421052633
336,1113.0023640661939,0.046052631578947345
337,1115.799842395587,0.046052631578947345
338,1118.5973207249804,0.046052631578947345
339,1121.3947990543734,0.046052631578947345
340,1124.1922773837669,0.046052631578947345
341,1126.9897557131599,0.046052631578947345
342,1126.9897557131599,0.052631578947368474
343,1129.7872340425533,0.052631578947368474
344,1132.5847123719464,0.052631578947368474
345,1132.5847123719464,0.05921052631578949
346,1135.3821907013398,0.05921052631578949
347,1138.1796690307328,0.05921052631578949
348,1140.9771473601263,0.05921052631578949
349,1140.9771473601263,0.06578947368421051
350,1143.7746256895193,0.06578947368421051
351,1146.5721040189123,0.06578947368421051
352,1146.5721040189123,0.07236842105263153
353,1149.3695823483058,0.07236842105263153
354,1152.1670606776988,0.07894736842105265
355,1152.1670606776988,0.07236842105263153
356,1154.9645390070923,0.07894736842105265
357,1157.7620173364853,0.07894736842105265
358,1160.5594956658788,0.08552631578947367
359,1160.5594956658788,0.07894736842105265
360,1163.3569739952718,0.08552631578947367
361,1166.1544523246653,0.08552631578947367
362,1168.9519306540583,0.08552631578947367
363,1171.7494089834518,0.08552631578947367
364,1174.5468873128448,0.08552631578947367
365,1174.5468873128448,0.09210526315789469
366,1177.3443656422378,0.09210526315789469
367,1180.1418439716313,0.09210526315789469
368,1180.1418439716313,0.08552631578947367
369,1182.9393223010243,0.08552631578947367
370,1185.7368006304177,0.09210526315789469
371,1185.7368006304177,0.08552631578947367
372,1188.5342789598108,0.09210526315789469
373,1191.3317572892042,0.09210526315789469
374,1191.3317572892042,0.08552631578947367
375,1194.1292356185972,0.08552631578947367
376,1196.9267139479907,0.08552631578947367
377,1199.7241922773837,0.09210526315789469
378,1199.7241922773837,0.08552631578947367
379,1202.5216706067772,0.09210526315789469
380,1205.3191489361702,0.09210526315789469
381,1208.1166272655632,0.09210526315789469
382,1210.9141055949567,0.09210526315789469
383,1213.7115839243497,0.09210526315789469
384,1216.5090622537432,0.09210526315789469
385,1219.3065405831362,0.09210526315789469
386,1222.1040189125297,0.09210526315789469
387,1224.9014972419227,0.09210526315789469
388,1224.9014972419227,0.09868421052631582
389,1227.6989755713162,0.09868421052631582
390,1230.4964539007092,0.09868421052631582
391,1233.2939322301027,0.09868421052631582
392,1236.0914105594957,0.09868421052631582
393,1238.8888888888887,0.10526315789473684
394,1238.8888888888887,0.09868421052631582
395,1241.6863672182822,0.10526315789473684
396,1244.4838455476752,0.10526315789473684
397,1247.2813238770686,0.11184210526315785
398,1247.2813238770686,0.10526315789473684
399,1250.0788022064617,0.11184210526315785
400,1252.8762805358551,0.11184210526315785
401,1255.6737588652481,0.11184210526315785
402,1258.4712371946416,0.11184210526315785
403,1261.2687155240346,0.11184210526315785
404,1264.066193853428,0.10526315789473684
405,1264.066193853428,0.11184210526315785
406,1266.8636721828211,0.10526315789473684
407,1269.6611505122141,0.10526315789473684
408,1272.4586288416076,0.10526315789473684
409,1275.2561071710006,0.10526315789473684
410,1278.053585500394,0.09868421052631582
411,1278.053585500394,0.10526315789473684
412,1280.851063829787,0.09868421052631582
413,1283.6485421591806,0.09868421052631582
414,1286.4460204885736,0.09868421052631582
415,1289.243498817967,0.09868421052631582
416,1292.04097714736,0.09868421052631582
417,1294.8384554767536,0.09868421052631582
418,1297.6359338061466,0.09868421052631582
419,1300.4334121355396,0.09868421052631582
420,1303.230890464933,0.09868421052631582
421,1303.230890464933,0.09210526315789469
422,1306.028368794326,0.09210526315789469
423,1308.8258471237195,0.08552631578947367
424,1308.8258471237195,0.09210526315789469
425,1311.6233254531126,0.08552631578947367
426,1314.420803782506,0.08552631578947367
427,1314.420803782506,0.07894736842105265
428,1317.218282111899,0.07894736842105265
429,1320.0157604412925,0.07894736842105265
430,1322.8132387706855,0.07894736842105265
431,1325.610717100079,0.07894736842105265
432,1328.408195429472,0.07894736842105265
433,1331.205673758865,0.07894736842105265
434,1334.0031520882585,0.08552631578947367
435,1334.0031520882585,0.07894736842105265
436,1336.8006304176515,0.08552631578947367
437,1339.598108747045,0.09210526315789469
438,1339.598108747045,0.08552631578947367
439,1342.395587076438,0.09210526315789469
440,1345.1930654058315,0.09210526315789469
441,1345.1930654058315,0.09868421052631582
442,1347.9905437352245,0.09868421052631582
443,1350.788022064618,0.09868421052631582
444,1353.585500394011,0.09868421052631582
445,1356.3829787234044,0.09868421052631582
446,1359.1804570527975,0.11184210526315785
447,1359.1804570527975,0.10526315789473684
448,1359.1804570527975,0.09868421052631582
449,1361.9779353821905,0.11842105263157898
450,1361.9779353821905,0.11184210526315785
451,1364.775413711584,0.11842105263157898
452,1364.775413711584,0.125
453,1367.572892040977,0.125
454,1370.3703703703704,0.11842105263157898
455,1370.3703703703704,0.13157894736842102
456,1370.3703703703704,0.125
457,1373.1678486997635,0.13157894736842102
458,1375.965327029157,0.125
459,1375.965327029157,0.13157894736842102
460,1378.76280535855,0.125
461,1378.76280535855,0.11842105263157898
462,1378.76280535855,0.11184210526315785
463,1381.5602836879434,0.09868421052631582
464,1381.5602836879434,0.11184210526315785
465,1381.5602836879434,0.10526315789473684
