,wavenumbers,absorbance
0,452.797478329393,0.019736842105263164
1,452.797478329393,0.02631578947368418
2,455.5949566587865,0.02631578947368418
3,458.3924349881795,0.02631578947368418
4,461.189913317573,0.02631578947368418
5,463.987391646966,0.02631578947368418
6,466.78486997635946,0.02631578947368418
7,469.5823483057525,0.02631578947368418
8,472.37982663514595,0.02631578947368418
9,475.17730496453896,0.02631578947368418
10,477.97478329393243,0.02631578947368418
11,480.77226162332545,0.02631578947368418
12,483.56973995271846,0.02631578947368418
13,486.36721828211193,0.03289473684210531
14,486.36721828211193,0.02631578947368418
15,489.16469661150495,0.03289473684210531
16,491.9621749408984,0.03289473684210531
17,494.75965327029144,0.03289473684210531
18,497.5571315996849,0.03289473684210531
19,500.3546099290779,0.03947368421052633
20,500.3546099290779,0.03289473684210531
21,503.1520882584714,0.03947368421052633
22,505.9495665878644,0.03947368421052633
23,508.7470449172579,0.03947368421052633
24,508.7470449172579,0.046052631578947345
25,511.5445232466509,0.046052631578947345
26,514.3420015760439,0.046052631578947345
27,517.1394799054374,0.046052631578947345
28,519.9369582348304,0.046052631578947345
29,522.7344365642239,0.046052631578947345
30,525.5319148936169,0.046052631578947345
31,528.3293932230104,0.046052631578947345
32,531.1268715524034,0.046052631578947345
33,533.9243498817968,0.046052631578947345
34,536.7218282111899,0.046052631578947345
35,539.5193065405833,0.046052631578947345
36,542.3167848699763,0.046052631578947345
37,545.1142631993694,0.03947368421052633
38,545.1142631993694,0.046052631578947345
39,547.9117415287628,0.03947368421052633
40,550.7092198581558,0.03947368421052633
41,553.5066981875493,0.03947368421052633
42,556.3041765169423,0.03947368421052633
43,556.3041765169423,0.046052631578947345
44,559.1016548463358,0.046052631578947345
45,561.8991331757288,0.046052631578947345
46,564.6966115051223,0.046052631578947345
47,567.4940898345153,0.046052631578947345
48,570.2915681639088,0.046052631578947345
49,573.0890464933018,0.046052631578947345
50,575.8865248226948,0.052631578947368474
51,575.8865248226948,0.046052631578947345
52,578.6840031520883,0.052631578947368474
53,581.4814814814813,0.052631578947368474
54,584.2789598108748,0.052631578947368474
55,587.0764381402678,0.052631578947368474
56,589.8739164696613,0.052631578947368474
57,592.6713947990543,0.052631578947368474
58,595.4688731284477,0.052631578947368474
59,595.4688731284477,0.046052631578947345
60,598.2663514578408,0.046052631578947345
61,601.0638297872342,0.046052631578947345
62,601.0638297872342,0.052631578947368474
63,603.8613081166272,0.052631578947368474
64,606.6587864460207,0.052631578947368474
65,609.4562647754137,0.052631578947368474
66,612.2537431048067,0.052631578947368474
67,615.0512214342002,0.052631578947368474
68,617.8486997635932,0.052631578947368474
69,620.6461780929867,0.052631578947368474
70,623.4436564223797,0.052631578947368474
71,626.2411347517732,0.052631578947368474
72,626.2411347517732,0.05921052631578949
73,629.0386130811662,0.05921052631578949
74,631.8360914105597,0.05921052631578949
75,634.6335697399527,0.05921052631578949
76,637.4310480693462,0.05921052631578949
77,640.2285263987392,0.05921052631578949
78,643.0260047281322,0.06578947368421051
79,643.0260047281322,0.05921052631578949
80,645.8234830575257,0.06578947368421051
81,648.6209613869187,0.06578947368421051
82,651.4184397163122,0.06578947368421051
83,654.2159180457052,0.05921052631578949
84,654.2159180457052,0.06578947368421051
85,657.0133963750986,0.05921052631578949
86,659.8108747044917,0.05921052631578949
87,662.6083530338851,0.05921052631578949
88,662.6083530338851,0.052631578947368474
89,665.4058313632781,0.046052631578947345
90,665.4058313632781,0.052631578947368474
91,668.2033096926716,0.046052631578947345
92,671.0007880220646,0.046052631578947345
93,671.0007880220646,0.03947368421052633
94,673.7982663514576,0.03947368421052633
95,676.5957446808511,0.03947368421052633
96,679.3932230102441,0.03947368421052633
97,682.1907013396376,0.03947368421052633
98,682.1907013396376,0.03289473684210531
99,684.9881796690306,0.03289473684210531
100,687.7856579984241,0.03289473684210531
101,690.5831363278171,0.02631578947368418
102,690.5831363278171,0.03289473684210531
103,693.3806146572106,0.02631578947368418
104,696.1780929866036,0.02631578947368418
105,698.9755713159971,0.02631578947368418
106,698.9755713159971,0.03289473684210531
107,701.7730496453901,0.03289473684210531
108,704.5705279747831,0.03289473684210531
109,707.3680063041766,0.02631578947368418
110,707.3680063041766,0.03289473684210531
111,710.1654846335696,0.03289473684210531
112,710.1654846335696,0.02631578947368418
113,712.962962962963,0.03289473684210531
114,715.7604412923561,0.03289473684210531
115,718.5579196217495,0.03289473684210531
116,721.3553979511425,0.03289473684210531
117,724.152876280536,0.03289473684210531
118,724.152876280536,0.02631578947368418
119,726.950354609929,0.03289473684210531
120,729.7478329393225,0.03289473684210531
121,732.5453112687155,0.03289473684210531
122,735.3427895981085,0.03289473684210531
123,738.140267927502,0.03289473684210531
124,740.937746256895,0.03947368421052633
125,740.937746256895,0.03289473684210531
126,743.7352245862885,0.03947368421052633
127,746.5327029156815,0.03947368421052633
128,749.330181245075,0.03947368421052633
129,749.330181245075,0.046052631578947345
130,752.127659574468,0.052631578947368474
131,752.127659574468,0.046052631578947345
132,754.9251379038615,0.052631578947368474
133,754.9251379038615,0.07236842105263153
134,754.9251379038615,0.05921052631578949
135,754.9251379038615,0.06578947368421051
136,757.7226162332545,0.07236842105263153
137,757.7226162332545,0.08552631578947367
138,757.7226162332545,0.09210526315789469
139,757.7226162332545,0.07894736842105265
140,760.520094562648,0.10526315789473684
141,760.520094562648,0.09868421052631582
142,760.520094562648,0.09210526315789469
143,763.317572892041,0.125
144,763.317572892041,0.11842105263157898
145,763.317572892041,0.11184210526315785
146,763.317572892041,0.10526315789473684
147,766.115051221434,0.125
148,766.115051221434,0.11842105263157898
149,768.9125295508275,0.09210526315789469
150,768.9125295508275,0.11184210526315785
151,768.9125295508275,0.10526315789473684
152,768.9125295508275,0.11842105263157898
153,768.9125295508275,0.08552631578947367
154,768.9125295508275,0.09868421052631582
155,771.7100078802205,0.08552631578947367
156,771.7100078802205,0.07894736842105265
157,771.7100078802205,0.07236842105263153
158,774.507486209614,0.05921052631578949
159,774.507486209614,0.07236842105263153
160,774.507486209614,0.06578947368421051
161,774.507486209614,0.052631578947368474
162,777.304964539007,0.046052631578947345
163,777.304964539007,0.052631578947368474
164,780.1024428684004,0.03947368421052633
165,780.1024428684004,0.046052631578947345
166,782.8999211977934,0.03947368421052633
167,785.6973995271869,0.03947368421052633
168,785.6973995271869,0.03289473684210531
169,788.4948778565799,0.03289473684210531
170,791.2923561859734,0.03289473684210531
171,794.0898345153664,0.03289473684210531
172,796.8873128447594,0.03289473684210531
173,799.6847911741529,0.046052631578947345
174,799.6847911741529,0.03289473684210531
175,799.6847911741529,0.03947368421052633
176,802.4822695035459,0.046052631578947345
177,802.4822695035459,0.052631578947368474
178,805.2797478329394,0.06578947368421051
179,805.2797478329394,0.05921052631578949
180,805.2797478329394,0.052631578947368474
181,805.2797478329394,0.07236842105263153
182,808.0772261623324,0.07894736842105265
183,808.0772261623324,0.07236842105263153
184,810.8747044917259,0.07894736842105265
185,810.8747044917259,0.08552631578947367
186,813.6721828211189,0.07894736842105265
187,813.6721828211189,0.08552631578947367
188,816.4696611505124,0.07894736842105265
189,819.2671394799054,0.07236842105263153
190,819.2671394799054,0.07894736842105265
191,819.2671394799054,0.06578947368421051
192,822.0646178092989,0.05921052631578949
193,822.0646178092989,0.06578947368421051
194,824.8620961386919,0.052631578947368474
195,824.8620961386919,0.05921052631578949
196,824.8620961386919,0.046052631578947345
197,827.6595744680849,0.046052631578947345
198,827.6595744680849,0.03947368421052633
199,830.4570527974784,0.03947368421052633
200,830.4570527974784,0.03289473684210531
201,833.2545311268714,0.03289473684210531
202,836.0520094562648,0.03289473684210531
203,836.0520094562648,0.02631578947368418
204,838.8494877856579,0.019736842105263164
205,838.8494877856579,0.02631578947368418
206,841.6469661150513,0.019736842105263164
207,844.4444444444443,0.019736842105263164
208,847.2419227738378,0.019736842105263164
209,850.0394011032308,0.019736842105263164
210,850.0394011032308,0.02631578947368418
211,852.8368794326243,0.02631578947368418
212,855.6343577620173,0.03947368421052633
213,855.6343577620173,0.02631578947368418
214,855.6343577620173,0.03289473684210531
215,858.4318360914103,0.03947368421052633
216,861.2293144208038,0.046052631578947345
217,861.2293144208038,0.03947368421052633
218,861.2293144208038,0.052631578947368474
219,864.0267927501968,0.05921052631578949
220,864.0267927501968,0.052631578947368474
221,866.8242710795903,0.05921052631578949
222,869.6217494089833,0.05921052631578949
223,869.6217494089833,0.052631578947368474
224,872.4192277383768,0.052631578947368474
225,875.2167060677698,0.052631578947368474
226,875.2167060677698,0.046052631578947345
227,878.0141843971633,0.046052631578947345
228,880.8116627265563,0.046052631578947345
229,883.6091410559497,0.03947368421052633
230,883.6091410559497,0.046052631578947345
231,886.4066193853428,0.03947368421052633
232,889.2040977147362,0.03947368421052633
233,892.0015760441293,0.03947368421052633
234,894.7990543735223,0.046052631578947345
235,894.7990543735223,0.03947368421052633
236,897.5965327029157,0.046052631578947345
237,897.5965327029157,0.05921052631578949
238,897.5965327029157,0.052631578947368474
239,900.3940110323088,0.06578947368421051
240,900.3940110323088,0.05921052631578949
241,903.1914893617022,0.07236842105263153
242,903.1914893617022,0.06578947368421051
243,905.9889676910952,0.07236842105263153
244,908.7864460204887,0.07236842105263153
245,911.5839243498817,0.08552631578947367
246,911.5839243498817,0.07236842105263153
247,911.5839243498817,0.07894736842105265
248,914.3814026792752,0.09210526315789469
249,914.3814026792752,0.08552631578947367
250,917.1788810086682,0.09210526315789469
251,917.1788810086682,0.10526315789473684
252,917.1788810086682,0.09868421052631582
253,919.9763593380617,0.11184210526315785
254,919.9763593380617,0.10526315789473684
255,922.7738376674547,0.11842105263157898
256,922.7738376674547,0.11184210526315785
257,925.5713159968477,0.11842105263157898
258,928.3687943262412,0.11842105263157898
259,931.1662726556342,0.11184210526315785
260,931.1662726556342,0.11842105263157898
261,933.9637509850277,0.11184210526315785
262,933.9637509850277,0.10526315789473684
263,936.7612293144207,0.10526315789473684
264,936.7612293144207,0.09210526315789469
265,936.7612293144207,0.09868421052631582
266,939.5587076438142,0.09210526315789469
267,939.5587076438142,0.08552631578947367
268,942.3561859732072,0.08552631578947367
269,942.3561859732072,0.07894736842105265
270,942.3561859732072,0.07236842105263153
271,945.1536643026006,0.07236842105263153
272,945.1536643026006,0.06578947368421051
273,947.9511426319937,0.06578947368421051
274,947.9511426319937,0.05921052631578949
275,950.7486209613871,0.05921052631578949
276,953.5460992907801,0.05921052631578949
277,953.5460992907801,0.052631578947368474
278,956.3435776201732,0.052631578947368474
279,959.1410559495666,0.052631578947368474
280,961.9385342789597,0.052631578947368474
281,964.7360126083531,0.052631578947368474
282,967.5334909377461,0.052631578947368474
283,970.3309692671396,0.052631578947368474
284,973.1284475965326,0.052631578947368474
285,975.9259259259261,0.052631578947368474
286,978.7234042553191,0.05921052631578949
287,978.7234042553191,0.052631578947368474
288,981.5208825847126,0.06578947368421051
289,981.5208825847126,0.05921052631578949
290,984.3183609141056,0.06578947368421051
291,987.1158392434986,0.08552631578947367
292,987.1158392434986,0.07894736842105265
293,987.1158392434986,0.07236842105263153
294,987.1158392434986,0.06578947368421051
295,989.9133175728921,0.10526315789473684
296,989.9133175728921,0.09210526315789469
297,989.9133175728921,0.08552631578947367
298,989.9133175728921,0.09868421052631582
299,992.7107959022851,0.13157894736842102
300,992.7107959022851,0.10526315789473684
301,992.7107959022851,0.11842105263157898
302,992.7107959022851,0.15131578947368418
303,992.7107959022851,0.125
304,992.7107959022851,0.13815789473684215
305,992.7107959022851,0.11184210526315785
306,992.7107959022851,0.14473684210526316
307,995.5082742316786,0.1578947368421053
308,995.5082742316786,0.17105263157894735
309,995.5082742316786,0.16447368421052633
310,995.5082742316786,0.15131578947368418
311,998.3057525610716,0.17105263157894735
312,998.3057525610716,0.1842105263157895
313,998.3057525610716,0.17763157894736847
314,998.3057525610716,0.1907894736842105
315,1001.103230890465,0.1907894736842105
316,1003.9007092198581,0.1907894736842105
317,1003.9007092198581,0.19736842105263153
318,1006.6981875492515,0.20394736842105265
319,1006.6981875492515,0.19736842105263153
320,1009.4956658786446,0.20394736842105265
321,1009.4956658786446,0.21052631578947367
322,1012.293144208038,0.20394736842105265
323,1015.090622537431,0.20394736842105265
324,1015.090622537431,0.19736842105263153
325,1017.8881008668241,0.1842105263157895
326,1017.8881008668241,0.1907894736842105
327,1017.8881008668241,0.19736842105263153
328,1020.6855791962175,0.1842105263157895
329,1020.6855791962175,0.17763157894736847
330,1023.4830575256105,0.17763157894736847
331,1026.280535855004,0.17763157894736847
332,1026.280535855004,0.1842105263157895
333,1029.078014184397,0.1907894736842105
334,1029.078014184397,0.19736842105263153
335,1029.078014184397,0.20394736842105265
336,1029.078014184397,0.1842105263157895
337,1031.8754925137905,0.20394736842105265
338,1031.8754925137905,0.2171052631578947
339,1031.8754925137905,0.21052631578947367
340,1034.6729708431835,0.24342105263157898
341,1034.6729708431835,0.2171052631578947
342,1034.6729708431835,0.23026315789473684
343,1034.6729708431835,0.22368421052631582
344,1034.6729708431835,0.23684210526315785
345,1034.6729708431835,0.25
346,1037.470449172577,0.2763157894736842
347,1037.470449172577,0.25
348,1037.470449172577,0.26973684210526316
349,1037.470449172577,0.26315789473684215
350,1037.470449172577,0.256578947368421
351,1040.26792750197,0.2763157894736842
352,1040.26792750197,0.3092105263157895
353,1040.26792750197,0.3026315789473685
354,1040.26792750197,0.3355263157894737
355,1040.26792750197,0.3223684210526315
356,1040.26792750197,0.2894736842105263
357,1040.26792750197,0.2828947368421053
358,1040.26792750197,0.3157894736842105
359,1040.26792750197,0.32894736842105265
360,1040.26792750197,0.29605263157894735
361,1043.0654058313635,0.3355263157894737
362,1043.0654058313635,0.3421052631578947
363,1043.0654058313635,0.375
364,1043.0654058313635,0.35526315789473684
365,1043.0654058313635,0.368421052631579
366,1043.0654058313635,0.3486842105263158
367,1043.0654058313635,0.36184210526315785
368,1045.8628841607565,0.38815789473684215
369,1045.8628841607565,0.375
370,1045.8628841607565,0.4078947368421053
371,1045.8628841607565,0.381578947368421
372,1045.8628841607565,0.4144736842105263
373,1045.8628841607565,0.39473684210526316
374,1045.8628841607565,0.4013157894736842
375,1048.6603624901495,0.5
376,1048.6603624901495,0.4342105263157895
377,1048.6603624901495,0.4144736842105263
378,1048.6603624901495,0.4276315789473685
379,1048.6603624901495,0.506578947368421
380,1048.6603624901495,0.4407894736842105
381,1048.6603624901495,0.4473684210526315
382,1048.6603624901495,0.45394736842105265
383,1048.6603624901495,0.493421052631579
384,1048.6603624901495,0.4605263157894737
385,1048.6603624901495,0.4671052631578947
386,1048.6603624901495,0.48684210526315785
387,1048.6603624901495,0.4736842105263158
388,1048.6603624901495,0.48026315789473684
389,1048.6603624901495,0.42105263157894735
390,1051.457840819543,0.5328947368421053
391,1051.457840819543,0.5460526315789473
392,1051.457840819543,0.5263157894736843
393,1051.457840819543,0.513157894736842
394,1051.457840819543,0.5394736842105263
395,1051.457840819543,0.5197368421052632
396,1051.457840819543,0.506578947368421
397,1054.255319148936,0.5789473684210527
398,1054.255319148936,0.5592105263157895
399,1054.255319148936,0.5921052631578947
400,1054.255319148936,0.6052631578947368
401,1054.255319148936,0.5460526315789473
402,1054.255319148936,0.5855263157894737
403,1054.255319148936,0.611842105263158
404,1054.255319148936,0.5723684210526316
405,1054.255319148936,0.5526315789473684
406,1054.255319148936,0.5657894736842105
407,1054.255319148936,0.5986842105263157
408,1057.0527974783295,0.618421052631579
409,1057.0527974783295,0.611842105263158
410,1057.0527974783295,0.631578947368421
411,1057.0527974783295,0.625
412,1059.8502758077225,0.6644736842105263
413,1059.8502758077225,0.6710526315789473
414,1059.8502758077225,0.6578947368421053
415,1059.8502758077225,0.631578947368421
416,1059.8502758077225,0.6513157894736843
417,1059.8502758077225,0.6447368421052632
418,1059.8502758077225,0.638157894736842
419,1062.647754137116,0.6776315789473684
420,1062.647754137116,0.6710526315789473
421,1065.445232466509,0.6776315789473684
422,1065.445232466509,0.6842105263157895
423,1065.445232466509,0.6907894736842105
424,1068.2427107959024,0.6973684210526316
425,1068.2427107959024,0.6907894736842105
426,1071.0401891252955,0.7039473684210527
427,1071.0401891252955,0.6973684210526316
428,1073.837667454689,0.7039473684210527
429,1073.837667454689,0.7105263157894737
430,1073.837667454689,0.7171052631578947
431,1073.837667454689,0.7236842105263157
432,1076.635145784082,0.7236842105263157
433,1076.635145784082,0.7302631578947368
434,1079.432624113475,0.7302631578947368
435,1079.432624113475,0.736842105263158
436,1079.432624113475,0.743421052631579
437,1079.432624113475,0.75
438,1082.2301024428684,0.7697368421052632
439,1082.2301024428684,0.7631578947368421
440,1082.2301024428684,0.75
441,1082.2301024428684,0.756578947368421
442,1085.0275807722614,0.8092105263157895
443,1085.0275807722614,0.7763157894736842
444,1085.0275807722614,0.8026315789473684
445,1085.0275807722614,0.7697368421052632
446,1085.0275807722614,0.7828947368421053
447,1085.0275807722614,0.7894736842105263
448,1085.0275807722614,0.7960526315789473
449,1087.825059101655,0.8289473684210527
450,1087.825059101655,0.8092105263157895
451,1087.825059101655,0.8355263157894737
452,1087.825059101655,0.8223684210526316
453,1087.825059101655,0.8157894736842105
454,1090.622537431048,0.8421052631578947
455,1090.622537431048,0.8881578947368421
456,1090.622537431048,0.875
457,1090.622537431048,0.868421052631579
458,1090.622537431048,0.8618421052631579
459,1090.622537431048,0.8552631578947368
460,1090.622537431048,0.8486842105263158
461,1090.622537431048,0.8355263157894737
462,1090.622537431048,0.881578947368421
463,1093.4200157604414,0.9013157894736842
464,1093.4200157604414,0.8947368421052632
465,1093.4200157604414,0.8881578947368421
466,1096.2174940898344,0.9013157894736842
467,1096.2174940898344,0.9210526315789473
468,1096.2174940898344,0.9276315789473684
469,1096.2174940898344,0.9342105263157895
