,wavenumbers,absorbance
0,452.797478329393,0.02631578947368418
1,455.5949566587865,0.02631578947368418
2,458.3924349881795,0.02631578947368418
3,461.189913317573,0.02631578947368418
4,463.987391646966,0.02631578947368418
5,463.987391646966,0.019736842105263164
6,466.78486997635946,0.019736842105263164
7,469.5823483057525,0.02631578947368418
8,469.5823483057525,0.019736842105263164
9,472.37982663514595,0.02631578947368418
10,475.17730496453896,0.02631578947368418
11,477.97478329393243,0.02631578947368418
12,477.97478329393243,0.019736842105263164
13,480.77226162332545,0.019736842105263164
14,483.56973995271846,0.019736842105263164
15,486.36721828211193,0.019736842105263164
16,489.16469661150495,0.019736842105263164
17,491.9621749408984,0.019736842105263164
18,494.75965327029144,0.019736842105263164
19,497.5571315996849,0.019736842105263164
20,500.3546099290779,0.019736842105263164
21,500.3546099290779,0.02631578947368418
22,503.1520882584714,0.02631578947368418
23,505.9495665878644,0.02631578947368418
24,508.7470449172579,0.02631578947368418
25,511.5445232466509,0.02631578947368418
26,514.3420015760439,0.02631578947368418
27,517.1394799054374,0.02631578947368418
28,519.9369582348304,0.03289473684210531
29,519.9369582348304,0.02631578947368418
30,522.7344365642239,0.03289473684210531
31,525.5319148936169,0.03947368421052633
32,525.5319148936169,0.03289473684210531
33,528.3293932230104,0.03947368421052633
34,531.1268715524034,0.03947368421052633
35,531.1268715524034,0.03289473684210531
36,533.9243498817968,0.03289473684210531
37,536.7218282111899,0.03289473684210531
38,536.7218282111899,0.02631578947368418
39,539.5193065405833,0.02631578947368418
40,542.3167848699763,0.02631578947368418
41,545.1142631993694,0.02631578947368418
42,547.9117415287628,0.02631578947368418
43,550.7092198581558,0.02631578947368418
44,553.5066981875493,0.02631578947368418
45,556.3041765169423,0.02631578947368418
46,559.1016548463358,0.02631578947368418
47,561.8991331757288,0.02631578947368418
48,564.6966115051223,0.02631578947368418
49,567.4940898345153,0.02631578947368418
50,570.2915681639088,0.02631578947368418
51,573.0890464933018,0.02631578947368418
52,573.0890464933018,0.03289473684210531
53,575.8865248226948,0.03289473684210531
54,575.8865248226948,0.02631578947368418
55,578.6840031520883,0.02631578947368418
56,581.4814814814813,0.02631578947368418
57,584.2789598108748,0.02631578947368418
58,587.0764381402678,0.02631578947368418
59,589.8739164696613,0.02631578947368418
60,592.6713947990543,0.02631578947368418
61,595.4688731284477,0.02631578947368418
62,598.2663514578408,0.019736842105263164
63,598.2663514578408,0.02631578947368418
64,601.0638297872342,0.019736842105263164
65,603.8613081166272,0.019736842105263164
66,606.6587864460207,0.019736842105263164
67,609.4562647754137,0.019736842105263164
68,612.2537431048067,0.019736842105263164
69,615.0512214342002,0.019736842105263164
70,617.8486997635932,0.019736842105263164
71,620.6461780929867,0.019736842105263164
72,623.4436564223797,0.019736842105263164
73,626.2411347517732,0.019736842105263164
74,629.0386130811662,0.019736842105263164
75,631.8360914105597,0.019736842105263164
76,634.6335697399527,0.019736842105263164
77,637.4310480693462,0.019736842105263164
78,640.2285263987392,0.019736842105263164
79,643.0260047281322,0.019736842105263164
80,645.8234830575257,0.019736842105263164
81,648.6209613869187,0.019736842105263164
82,651.4184397163122,0.019736842105263164
83,654.2159180457052,0.019736842105263164
84,657.0133963750986,0.019736842105263164
85,659.8108747044917,0.019736842105263164
86,662.6083530338851,0.019736842105263164
87,665.4058313632781,0.019736842105263164
88,668.2033096926716,0.019736842105263164
89,671.0007880220646,0.019736842105263164
90,673.7982663514576,0.019736842105263164
91,676.5957446808511,0.019736842105263164
92,679.3932230102441,0.019736842105263164
93,682.1907013396376,0.019736842105263164
94,684.9881796690306,0.019736842105263164
95,687.7856579984241,0.019736842105263164
96,690.5831363278171,0.019736842105263164
97,693.3806146572106,0.019736842105263164
98,696.1780929866036,0.019736842105263164
99,698.9755713159971,0.019736842105263164
100,701.7730496453901,0.019736842105263164
101,704.5705279747831,0.019736842105263164
102,707.3680063041766,0.019736842105263164
103,710.1654846335696,0.019736842105263164
104,712.962962962963,0.019736842105263164
105,715.7604412923561,0.019736842105263164
106,718.5579196217495,0.019736842105263164
107,721.3553979511425,0.019736842105263164
108,724.152876280536,0.019736842105263164
109,726.950354609929,0.019736842105263164
110,729.7478329393225,0.019736842105263164
111,732.5453112687155,0.019736842105263164
112,735.3427895981085,0.019736842105263164
113,738.140267927502,0.019736842105263164
114,740.937746256895,0.019736842105263164
115,743.7352245862885,0.019736842105263164
116,746.5327029156815,0.019736842105263164
117,749.330181245075,0.019736842105263164
118,752.127659574468,0.019736842105263164
119,754.9251379038615,0.019736842105263164
120,757.7226162332545,0.019736842105263164
121,760.520094562648,0.019736842105263164
122,763.317572892041,0.019736842105263164
123,766.115051221434,0.019736842105263164
124,768.9125295508275,0.019736842105263164
125,771.7100078802205,0.019736842105263164
126,774.507486209614,0.019736842105263164
127,777.304964539007,0.019736842105263164
128,780.1024428684004,0.02631578947368418
129,780.1024428684004,0.019736842105263164
130,782.8999211977934,0.02631578947368418
131,785.6973995271869,0.02631578947368418
132,788.4948778565799,0.02631578947368418
133,791.2923561859734,0.02631578947368418
134,794.0898345153664,0.02631578947368418
135,794.0898345153664,0.03289473684210531
136,796.8873128447594,0.03289473684210531
137,799.6847911741529,0.03289473684210531
138,802.4822695035459,0.03289473684210531
139,805.2797478329394,0.03947368421052633
140,805.2797478329394,0.03289473684210531
141,808.0772261623324,0.03947368421052633
142,810.8747044917259,0.03947368421052633
143,810.8747044917259,0.046052631578947345
144,813.6721828211189,0.046052631578947345
145,816.4696611505124,0.046052631578947345
146,819.2671394799054,0.046052631578947345
147,819.2671394799054,0.05921052631578949
148,819.2671394799054,0.052631578947368474
149,822.0646178092989,0.06578947368421051
150,822.0646178092989,0.07236842105263153
151,822.0646178092989,0.05921052631578949
152,824.8620961386919,0.07894736842105265
153,824.8620961386919,0.07236842105263153
154,824.8620961386919,0.08552631578947367
155,827.6595744680849,0.08552631578947367
156,827.6595744680849,0.09868421052631582
157,827.6595744680849,0.09210526315789469
158,830.4570527974784,0.13157894736842102
159,830.4570527974784,0.10526315789473684
160,830.4570527974784,0.09868421052631582
161,830.4570527974784,0.11842105263157898
162,830.4570527974784,0.13815789473684215
163,830.4570527974784,0.125
164,830.4570527974784,0.11184210526315785
165,833.2545311268714,0.17105263157894735
166,833.2545311268714,0.14473684210526316
167,833.2545311268714,0.17763157894736847
168,833.2545311268714,0.13815789473684215
169,833.2545311268714,0.15131578947368418
170,833.2545311268714,0.1578947368421053
171,833.2545311268714,0.1842105263157895
172,833.2545311268714,0.19736842105263153
173,833.2545311268714,0.16447368421052633
174,833.2545311268714,0.1907894736842105
175,836.0520094562648,0.35526315789473684
176,836.0520094562648,0.2763157894736842
177,836.0520094562648,0.375
178,836.0520094562648,0.20394736842105265
179,836.0520094562648,0.3223684210526315
180,836.0520094562648,0.21052631578947367
181,836.0520094562648,0.26973684210526316
182,836.0520094562648,0.3486842105263158
183,836.0520094562648,0.22368421052631582
184,836.0520094562648,0.3355263157894737
185,836.0520094562648,0.23684210526315785
186,836.0520094562648,0.19736842105263153
187,836.0520094562648,0.3421052631578947
188,836.0520094562648,0.32894736842105265
189,836.0520094562648,0.3157894736842105
190,836.0520094562648,0.2171052631578947
191,836.0520094562648,0.26315789473684215
192,836.0520094562648,0.256578947368421
193,836.0520094562648,0.368421052631579
194,836.0520094562648,0.24342105263157898
195,836.0520094562648,0.2828947368421053
196,836.0520094562648,0.2894736842105263
197,836.0520094562648,0.25
198,836.0520094562648,0.29605263157894735
199,836.0520094562648,0.3026315789473685
200,836.0520094562648,0.3092105263157895
201,836.0520094562648,0.23026315789473684
202,836.0520094562648,0.36184210526315785
203,838.8494877856579,0.375
204,838.8494877856579,0.36184210526315785
205,838.8494877856579,0.368421052631579
206,838.8494877856579,0.35526315789473684
207,838.8494877856579,0.3486842105263158
208,841.6469661150513,0.24342105263157898
209,841.6469661150513,0.23684210526315785
210,841.6469661150513,0.256578947368421
211,841.6469661150513,0.23026315789473684
212,841.6469661150513,0.25
213,841.6469661150513,0.2171052631578947
214,841.6469661150513,0.3486842105263158
215,841.6469661150513,0.2894736842105263
216,841.6469661150513,0.29605263157894735
217,841.6469661150513,0.3092105263157895
218,841.6469661150513,0.3157894736842105
219,841.6469661150513,0.3223684210526315
220,841.6469661150513,0.21052631578947367
221,841.6469661150513,0.26315789473684215
222,841.6469661150513,0.2828947368421053
223,841.6469661150513,0.3026315789473685
224,841.6469661150513,0.32894736842105265
225,841.6469661150513,0.2763157894736842
226,841.6469661150513,0.3355263157894737
227,841.6469661150513,0.22368421052631582
228,841.6469661150513,0.26973684210526316
229,841.6469661150513,0.3421052631578947
230,844.4444444444443,0.1578947368421053
231,844.4444444444443,0.1842105263157895
232,844.4444444444443,0.16447368421052633
233,844.4444444444443,0.15131578947368418
234,844.4444444444443,0.19736842105263153
235,844.4444444444443,0.17105263157894735
236,844.4444444444443,0.20394736842105265
237,844.4444444444443,0.1907894736842105
238,844.4444444444443,0.21052631578947367
239,844.4444444444443,0.17763157894736847
240,847.2419227738378,0.11842105263157898
241,847.2419227738378,0.125
242,847.2419227738378,0.15131578947368418
243,847.2419227738378,0.14473684210526316
244,847.2419227738378,0.13815789473684215
245,847.2419227738378,0.13157894736842102
246,850.0394011032308,0.11184210526315785
247,850.0394011032308,0.09868421052631582
248,850.0394011032308,0.09210526315789469
249,850.0394011032308,0.10526315789473684
250,850.0394011032308,0.11842105263157898
251,852.8368794326243,0.09210526315789469
252,852.8368794326243,0.08552631578947367
253,855.6343577620173,0.07894736842105265
254,855.6343577620173,0.06578947368421051
255,855.6343577620173,0.08552631578947367
256,855.6343577620173,0.07236842105263153
257,858.4318360914103,0.06578947368421051
258,861.2293144208038,0.052631578947368474
259,861.2293144208038,0.05921052631578949
260,861.2293144208038,0.06578947368421051
261,864.0267927501968,0.052631578947368474
262,866.8242710795903,0.052631578947368474
263,869.6217494089833,0.052631578947368474
264,869.6217494089833,0.046052631578947345
265,872.4192277383768,0.046052631578947345
266,875.2167060677698,0.046052631578947345
267,878.0141843971633,0.046052631578947345
268,880.8116627265563,0.046052631578947345
269,883.6091410559497,0.046052631578947345
270,886.4066193853428,0.046052631578947345
271,886.4066193853428,0.03947368421052633
272,889.2040977147362,0.03947368421052633
273,892.0015760441293,0.03947368421052633
274,894.7990543735223,0.03947368421052633
275,897.5965327029157,0.03947368421052633
276,897.5965327029157,0.046052631578947345
277,900.3940110323088,0.046052631578947345
278,903.1914893617022,0.046052631578947345
279,905.9889676910952,0.052631578947368474
280,905.9889676910952,0.046052631578947345
281,908.7864460204887,0.052631578947368474
282,911.5839243498817,0.052631578947368474
283,911.5839243498817,0.05921052631578949
284,914.3814026792752,0.05921052631578949
285,914.3814026792752,0.06578947368421051
286,917.1788810086682,0.07236842105263153
287,917.1788810086682,0.06578947368421051
288,919.9763593380617,0.07236842105263153
289,919.9763593380617,0.07894736842105265
290,922.7738376674547,0.09210526315789469
291,922.7738376674547,0.08552631578947367
292,922.7738376674547,0.07894736842105265
293,925.5713159968477,0.09868421052631582
294,925.5713159968477,0.09210526315789469
295,928.3687943262412,0.09868421052631582
296,928.3687943262412,0.10526315789473684
297,931.1662726556342,0.10526315789473684
298,931.1662726556342,0.11184210526315785
299,933.9637509850277,0.11184210526315785
300,933.9637509850277,0.125
301,933.9637509850277,0.11842105263157898
302,936.7612293144207,0.14473684210526316
303,936.7612293144207,0.15131578947368418
304,936.7612293144207,0.13157894736842102
305,936.7612293144207,0.1578947368421053
306,936.7612293144207,0.125
307,936.7612293144207,0.13815789473684215
308,939.5587076438142,0.17105263157894735
309,939.5587076438142,0.17763157894736847
310,939.5587076438142,0.1578947368421053
311,939.5587076438142,0.16447368421052633
312,942.3561859732072,0.17763157894736847
313,942.3561859732072,0.1907894736842105
314,942.3561859732072,0.1842105263157895
315,945.1536643026006,0.1842105263157895
316,945.1536643026006,0.17763157894736847
317,945.1536643026006,0.1907894736842105
318,947.9511426319937,0.17763157894736847
319,947.9511426319937,0.1578947368421053
320,947.9511426319937,0.16447368421052633
321,947.9511426319937,0.17105263157894735
322,950.7486209613871,0.1578947368421053
323,953.5460992907801,0.1578947368421053
324,953.5460992907801,0.14473684210526316
325,953.5460992907801,0.15131578947368418
326,956.3435776201732,0.14473684210526316
327,959.1410559495666,0.15131578947368418
328,959.1410559495666,0.14473684210526316
329,961.9385342789597,0.125
330,961.9385342789597,0.15131578947368418
331,961.9385342789597,0.11842105263157898
332,961.9385342789597,0.13157894736842102
333,961.9385342789597,0.14473684210526316
334,961.9385342789597,0.11184210526315785
335,961.9385342789597,0.13815789473684215
336,964.7360126083531,0.09210526315789469
337,964.7360126083531,0.09868421052631582
338,964.7360126083531,0.08552631578947367
339,964.7360126083531,0.11184210526315785
340,964.7360126083531,0.10526315789473684
341,967.5334909377461,0.08552631578947367
342,967.5334909377461,0.06578947368421051
343,967.5334909377461,0.07894736842105265
344,967.5334909377461,0.05921052631578949
345,967.5334909377461,0.07236842105263153
346,970.3309692671396,0.05921052631578949
347,973.1284475965326,0.052631578947368474
348,973.1284475965326,0.05921052631578949
349,975.9259259259261,0.052631578947368474
350,978.7234042553191,0.052631578947368474
351,981.5208825847126,0.052631578947368474
352,984.3183609141056,0.05921052631578949
353,984.3183609141056,0.052631578947368474
354,987.1158392434986,0.05921052631578949
355,989.9133175728921,0.05921052631578949
356,992.7107959022851,0.05921052631578949
357,995.5082742316786,0.05921052631578949
358,998.3057525610716,0.05921052631578949
359,1001.103230890465,0.05921052631578949
360,1001.103230890465,0.06578947368421051
361,1003.9007092198581,0.06578947368421051
362,1006.6981875492515,0.06578947368421051
363,1009.4956658786446,0.07236842105263153
364,1009.4956658786446,0.06578947368421051
365,1012.293144208038,0.07236842105263153
366,1012.293144208038,0.07894736842105265
367,1015.090622537431,0.07894736842105265
368,1017.8881008668241,0.07894736842105265
369,1017.8881008668241,0.08552631578947367
370,1020.6855791962175,0.09210526315789469
371,1020.6855791962175,0.08552631578947367
372,1023.4830575256105,0.10526315789473684
373,1023.4830575256105,0.09210526315789469
374,1023.4830575256105,0.09868421052631582
375,1026.280535855004,0.10526315789473684
376,1029.078014184397,0.11842105263157898
377,1029.078014184397,0.11184210526315785
378,1029.078014184397,0.10526315789473684
379,1031.8754925137905,0.11842105263157898
380,1034.6729708431835,0.11842105263157898
381,1034.6729708431835,0.125
382,1037.470449172577,0.125
383,1040.26792750197,0.125
384,1043.0654058313635,0.125
385,1043.0654058313635,0.13157894736842102
386,1045.8628841607565,0.13157894736842102
387,1045.8628841607565,0.13815789473684215
388,1048.6603624901495,0.1578947368421053
389,1048.6603624901495,0.14473684210526316
390,1048.6603624901495,0.17105263157894735
391,1048.6603624901495,0.16447368421052633
392,1048.6603624901495,0.15131578947368418
393,1048.6603624901495,0.13815789473684215
394,1051.457840819543,0.17763157894736847
395,1051.457840819543,0.1907894736842105
396,1051.457840819543,0.1842105263157895
397,1051.457840819543,0.19736842105263153
398,1051.457840819543,0.20394736842105265
399,1051.457840819543,0.17105263157894735
400,1054.255319148936,0.24342105263157898
401,1054.255319148936,0.3223684210526315
402,1054.255319148936,0.2894736842105263
403,1054.255319148936,0.21052631578947367
404,1054.255319148936,0.3157894736842105
405,1054.255319148936,0.29605263157894735
406,1054.255319148936,0.23026315789473684
407,1054.255319148936,0.20394736842105265
408,1054.255319148936,0.3026315789473685
409,1054.255319148936,0.23684210526315785
410,1054.255319148936,0.32894736842105265
411,1054.255319148936,0.2828947368421053
412,1054.255319148936,0.2171052631578947
413,1054.255319148936,0.256578947368421
414,1054.255319148936,0.26315789473684215
415,1054.255319148936,0.26973684210526316
416,1054.255319148936,0.25
417,1054.255319148936,0.2763157894736842
418,1054.255319148936,0.3092105263157895
419,1054.255319148936,0.22368421052631582
420,1054.255319148936,0.3355263157894737
421,1057.0527974783295,0.3355263157894737
422,1057.0527974783295,0.35526315789473684
423,1057.0527974783295,0.3486842105263158
424,1057.0527974783295,0.3421052631578947
425,1059.8502758077225,0.2894736842105263
426,1059.8502758077225,0.256578947368421
427,1059.8502758077225,0.23026315789473684
428,1059.8502758077225,0.3486842105263158
429,1059.8502758077225,0.32894736842105265
430,1059.8502758077225,0.26315789473684215
431,1059.8502758077225,0.29605263157894735
432,1059.8502758077225,0.23684210526315785
433,1059.8502758077225,0.3157894736842105
434,1059.8502758077225,0.3092105263157895
435,1059.8502758077225,0.26973684210526316
436,1059.8502758077225,0.2828947368421053
437,1059.8502758077225,0.25
438,1059.8502758077225,0.24342105263157898
439,1059.8502758077225,0.35526315789473684
440,1059.8502758077225,0.2763157894736842
441,1059.8502758077225,0.3355263157894737
442,1059.8502758077225,0.3223684210526315
443,1059.8502758077225,0.3421052631578947
444,1059.8502758077225,0.3026315789473685
445,1062.647754137116,0.22368421052631582
446,1062.647754137116,0.21052631578947367
447,1062.647754137116,0.2171052631578947
448,1062.647754137116,0.20394736842105265
449,1062.647754137116,0.23026315789473684
450,1065.445232466509,0.1907894736842105
451,1065.445232466509,0.19736842105263153
452,1065.445232466509,0.20394736842105265
453,1068.2427107959024,0.19736842105263153
454,1068.2427107959024,0.1907894736842105
455,1071.0401891252955,0.19736842105263153
456,1071.0401891252955,0.20394736842105265
457,1073.837667454689,0.2171052631578947
458,1073.837667454689,0.21052631578947367
459,1073.837667454689,0.20394736842105265
460,1073.837667454689,0.22368421052631582
461,1076.635145784082,0.23684210526315785
462,1076.635145784082,0.23026315789473684
463,1076.635145784082,0.22368421052631582
464,1079.432624113475,0.26973684210526316
465,1079.432624113475,0.26315789473684215
466,1079.432624113475,0.25
467,1079.432624113475,0.256578947368421
468,1079.432624113475,0.24342105263157898
469,1079.432624113475,0.23684210526315785
