,wavenumbers,absorbance
0,452.797478329393,0.019736842105263164
1,452.797478329393,0.02631578947368418
2,455.5949566587865,0.02631578947368418
3,458.3924349881795,0.019736842105263164
4,458.3924349881795,0.02631578947368418
5,461.189913317573,0.019736842105263164
6,463.987391646966,0.019736842105263164
7,466.78486997635946,0.019736842105263164
8,469.5823483057525,0.019736842105263164
9,469.5823483057525,0.02631578947368418
10,472.37982663514595,0.02631578947368418
11,475.17730496453896,0.02631578947368418
12,477.97478329393243,0.02631578947368418
13,480.77226162332545,0.02631578947368418
14,483.56973995271846,0.02631578947368418
15,486.36721828211193,0.02631578947368418
16,489.16469661150495,0.02631578947368418
17,491.9621749408984,0.02631578947368418
18,494.75965327029144,0.02631578947368418
19,497.5571315996849,0.02631578947368418
20,500.3546099290779,0.02631578947368418
21,503.1520882584714,0.02631578947368418
22,505.9495665878644,0.02631578947368418
23,508.7470449172579,0.03289473684210531
24,508.7470449172579,0.02631578947368418
25,511.5445232466509,0.02631578947368418
26,514.3420015760439,0.02631578947368418
27,517.1394799054374,0.02631578947368418
28,519.9369582348304,0.02631578947368418
29,522.7344365642239,0.02631578947368418
30,525.5319148936169,0.02631578947368418
31,525.5319148936169,0.03289473684210531
32,528.3293932230104,0.03289473684210531
33,531.1268715524034,0.03289473684210531
34,533.9243498817968,0.02631578947368418
35,533.9243498817968,0.03289473684210531
36,536.7218282111899,0.02631578947368418
37,539.5193065405833,0.02631578947368418
38,542.3167848699763,0.02631578947368418
39,545.1142631993694,0.02631578947368418
40,547.9117415287628,0.02631578947368418
41,550.7092198581558,0.02631578947368418
42,553.5066981875493,0.02631578947368418
43,553.5066981875493,0.019736842105263164
44,556.3041765169423,0.019736842105263164
45,559.1016548463358,0.019736842105263164
46,561.8991331757288,0.019736842105263164
47,564.6966115051223,0.019736842105263164
48,567.4940898345153,0.019736842105263164
49,570.2915681639088,0.019736842105263164
50,573.0890464933018,0.019736842105263164
51,575.8865248226948,0.019736842105263164
52,578.6840031520883,0.019736842105263164
53,581.4814814814813,0.019736842105263164
54,584.2789598108748,0.019736842105263164
55,587.0764381402678,0.019736842105263164
56,589.8739164696613,0.019736842105263164
57,592.6713947990543,0.019736842105263164
58,595.4688731284477,0.019736842105263164
59,598.2663514578408,0.019736842105263164
60,601.0638297872342,0.019736842105263164
61,603.8613081166272,0.019736842105263164
62,606.6587864460207,0.019736842105263164
63,609.4562647754137,0.019736842105263164
64,612.2537431048067,0.019736842105263164
65,615.0512214342002,0.019736842105263164
66,617.8486997635932,0.019736842105263164
67,620.6461780929867,0.019736842105263164
68,623.4436564223797,0.019736842105263164
69,626.2411347517732,0.019736842105263164
70,629.0386130811662,0.019736842105263164
71,631.8360914105597,0.019736842105263164
72,634.6335697399527,0.019736842105263164
73,637.4310480693462,0.019736842105263164
74,640.2285263987392,0.019736842105263164
75,643.0260047281322,0.019736842105263164
76,643.0260047281322,0.013157894736842146
77,645.8234830575257,0.013157894736842146
78,645.8234830575257,0.019736842105263164
79,648.6209613869187,0.019736842105263164
80,651.4184397163122,0.019736842105263164
81,654.2159180457052,0.019736842105263164
82,657.0133963750986,0.019736842105263164
83,659.8108747044917,0.019736842105263164
84,662.6083530338851,0.019736842105263164
85,665.4058313632781,0.019736842105263164
86,668.2033096926716,0.019736842105263164
87,671.0007880220646,0.019736842105263164
88,673.7982663514576,0.019736842105263164
89,676.5957446808511,0.019736842105263164
90,679.3932230102441,0.019736842105263164
91,682.1907013396376,0.019736842105263164
92,684.9881796690306,0.019736842105263164
93,687.7856579984241,0.019736842105263164
94,687.7856579984241,0.02631578947368418
95,690.5831363278171,0.02631578947368418
96,693.3806146572106,0.02631578947368418
97,696.1780929866036,0.02631578947368418
98,698.9755713159971,0.02631578947368418
99,701.7730496453901,0.02631578947368418
100,704.5705279747831,0.02631578947368418
101,704.5705279747831,0.03289473684210531
102,707.3680063041766,0.03289473684210531
103,710.1654846335696,0.03289473684210531
104,712.962962962963,0.03947368421052633
105,712.962962962963,0.03289473684210531
106,715.7604412923561,0.03947368421052633
107,718.5579196217495,0.046052631578947345
108,718.5579196217495,0.03947368421052633
109,721.3553979511425,0.046052631578947345
110,724.152876280536,0.046052631578947345
111,724.152876280536,0.052631578947368474
112,724.152876280536,0.05921052631578949
113,726.950354609929,0.05921052631578949
114,729.7478329393225,0.05921052631578949
115,729.7478329393225,0.06578947368421051
116,732.5453112687155,0.07236842105263153
117,732.5453112687155,0.06578947368421051
118,735.3427895981085,0.07236842105263153
119,738.140267927502,0.07236842105263153
120,738.140267927502,0.07894736842105265
121,740.937746256895,0.07894736842105265
122,740.937746256895,0.08552631578947367
123,743.7352245862885,0.09210526315789469
124,743.7352245862885,0.08552631578947367
125,746.5327029156815,0.09210526315789469
126,749.330181245075,0.09210526315789469
127,752.127659574468,0.09210526315789469
128,752.127659574468,0.09868421052631582
129,754.9251379038615,0.09868421052631582
130,757.7226162332545,0.09868421052631582
131,760.520094562648,0.09868421052631582
132,763.317572892041,0.09210526315789469
133,763.317572892041,0.09868421052631582
134,766.115051221434,0.09210526315789469
135,766.115051221434,0.09868421052631582
136,768.9125295508275,0.09868421052631582
137,771.7100078802205,0.09868421052631582
138,774.507486209614,0.10526315789473684
139,774.507486209614,0.09868421052631582
140,777.304964539007,0.10526315789473684
141,780.1024428684004,0.10526315789473684
142,780.1024428684004,0.11184210526315785
143,782.8999211977934,0.11184210526315785
144,785.6973995271869,0.11184210526315785
145,788.4948778565799,0.11184210526315785
146,788.4948778565799,0.10526315789473684
147,791.2923561859734,0.10526315789473684
148,794.0898345153664,0.10526315789473684
149,794.0898345153664,0.09868421052631582
150,796.8873128447594,0.09868421052631582
151,799.6847911741529,0.09868421052631582
152,802.4822695035459,0.09868421052631582
153,802.4822695035459,0.09210526315789469
154,805.2797478329394,0.09210526315789469
155,808.0772261623324,0.09210526315789469
156,810.8747044917259,0.09210526315789469
157,813.6721828211189,0.09210526315789469
158,816.4696611505124,0.09210526315789469
159,819.2671394799054,0.09868421052631582
160,819.2671394799054,0.09210526315789469
161,822.0646178092989,0.10526315789473684
162,822.0646178092989,0.09868421052631582
163,824.8620961386919,0.10526315789473684
164,824.8620961386919,0.11184210526315785
165,827.6595744680849,0.11842105263157898
166,827.6595744680849,0.11184210526315785
167,830.4570527974784,0.125
168,830.4570527974784,0.13157894736842102
169,830.4570527974784,0.11842105263157898
170,833.2545311268714,0.13157894736842102
171,836.0520094562648,0.13157894736842102
172,836.0520094562648,0.13815789473684215
173,836.0520094562648,0.14473684210526316
174,838.8494877856579,0.15131578947368418
175,838.8494877856579,0.14473684210526316
176,841.6469661150513,0.16447368421052633
177,841.6469661150513,0.17105263157894735
178,841.6469661150513,0.1578947368421053
179,841.6469661150513,0.15131578947368418
180,844.4444444444443,0.17763157894736847
181,844.4444444444443,0.17105263157894735
182,847.2419227738378,0.17763157894736847
183,847.2419227738378,0.1842105263157895
184,850.0394011032308,0.17105263157894735
185,850.0394011032308,0.17763157894736847
186,850.0394011032308,0.1842105263157895
187,852.8368794326243,0.16447368421052633
188,852.8368794326243,0.17105263157894735
189,855.6343577620173,0.14473684210526316
190,855.6343577620173,0.1578947368421053
191,855.6343577620173,0.16447368421052633
192,855.6343577620173,0.15131578947368418
193,858.4318360914103,0.13815789473684215
194,858.4318360914103,0.14473684210526316
195,861.2293144208038,0.125
196,861.2293144208038,0.13815789473684215
197,861.2293144208038,0.13157894736842102
198,864.0267927501968,0.125
199,866.8242710795903,0.125
200,866.8242710795903,0.13157894736842102
201,869.6217494089833,0.13157894736842102
202,872.4192277383768,0.13157894736842102
203,872.4192277383768,0.13815789473684215
204,875.2167060677698,0.14473684210526316
205,875.2167060677698,0.13815789473684215
206,880.8116627265563,0.14473684210526316
207,880.8116627265563,0.13815789473684215
208,883.6091410559497,0.13815789473684215
209,886.4066193853428,0.125
210,886.4066193853428,0.13815789473684215
211,886.4066193853428,0.13157894736842102
212,889.2040977147362,0.125
213,892.0015760441293,0.125
214,892.0015760441293,0.11842105263157898
215,894.7990543735223,0.11842105263157898
216,897.5965327029157,0.11842105263157898
217,900.3940110323088,0.125
218,900.3940110323088,0.11842105263157898
219,903.1914893617022,0.125
220,905.9889676910952,0.13157894736842102
221,905.9889676910952,0.125
222,908.7864460204887,0.13157894736842102
223,911.5839243498817,0.13157894736842102
224,914.3814026792752,0.13157894736842102
225,917.1788810086682,0.125
226,917.1788810086682,0.13157894736842102
227,919.9763593380617,0.125
228,922.7738376674547,0.125
229,925.5713159968477,0.125
230,928.3687943262412,0.125
231,931.1662726556342,0.11842105263157898
232,931.1662726556342,0.125
233,933.9637509850277,0.11842105263157898
234,936.7612293144207,0.11842105263157898
235,939.5587076438142,0.11842105263157898
236,942.3561859732072,0.11842105263157898
237,942.3561859732072,0.11184210526315785
238,945.1536643026006,0.11184210526315785
239,947.9511426319937,0.11184210526315785
240,950.7486209613871,0.11184210526315785
241,953.5460992907801,0.11184210526315785
242,956.3435776201732,0.11184210526315785
243,959.1410559495666,0.11184210526315785
244,961.9385342789597,0.10526315789473684
245,961.9385342789597,0.11184210526315785
246,964.7360126083531,0.10526315789473684
247,967.5334909377461,0.10526315789473684
248,967.5334909377461,0.09868421052631582
249,970.3309692671396,0.09868421052631582
250,973.1284475965326,0.09868421052631582
251,975.9259259259261,0.09210526315789469
252,975.9259259259261,0.09868421052631582
253,978.7234042553191,0.09210526315789469
254,981.5208825847126,0.09210526315789469
255,984.3183609141056,0.09210526315789469
256,987.1158392434986,0.09868421052631582
257,987.1158392434986,0.09210526315789469
258,989.9133175728921,0.09868421052631582
259,992.7107959022851,0.10526315789473684
260,992.7107959022851,0.09868421052631582
261,995.5082742316786,0.10526315789473684
262,995.5082742316786,0.11184210526315785
263,995.5082742316786,0.11842105263157898
264,998.3057525610716,0.11842105263157898
265,998.3057525610716,0.13157894736842102
266,998.3057525610716,0.125
267,1001.103230890465,0.14473684210526316
268,1001.103230890465,0.13157894736842102
269,1001.103230890465,0.13815789473684215
270,1003.9007092198581,0.17763157894736847
271,1003.9007092198581,0.15131578947368418
272,1003.9007092198581,0.1578947368421053
273,1003.9007092198581,0.16447368421052633
274,1003.9007092198581,0.17105263157894735
275,1003.9007092198581,0.14473684210526316
276,1006.6981875492515,0.1907894736842105
277,1006.6981875492515,0.1842105263157895
278,1006.6981875492515,0.17763157894736847
279,1009.4956658786446,0.22368421052631582
280,1009.4956658786446,0.2171052631578947
281,1009.4956658786446,0.1907894736842105
282,1009.4956658786446,0.19736842105263153
283,1009.4956658786446,0.20394736842105265
284,1009.4956658786446,0.21052631578947367
285,1012.293144208038,0.23684210526315785
286,1012.293144208038,0.22368421052631582
287,1012.293144208038,0.23026315789473684
288,1015.090622537431,0.24342105263157898
289,1015.090622537431,0.23684210526315785
290,1017.8881008668241,0.25
291,1017.8881008668241,0.24342105263157898
292,1017.8881008668241,0.256578947368421
293,1020.6855791962175,0.256578947368421
294,1023.4830575256105,0.256578947368421
295,1026.280535855004,0.256578947368421
296,1029.078014184397,0.256578947368421
297,1031.8754925137905,0.256578947368421
298,1031.8754925137905,0.25
299,1034.6729708431835,0.25
300,1037.470449172577,0.25
301,1040.26792750197,0.25
302,1043.0654058313635,0.25
303,1045.8628841607565,0.25
304,1045.8628841607565,0.24342105263157898
305,1048.6603624901495,0.23026315789473684
306,1048.6603624901495,0.23684210526315785
307,1048.6603624901495,0.2171052631578947
308,1048.6603624901495,0.22368421052631582
309,1048.6603624901495,0.24342105263157898
310,1051.457840819543,0.21052631578947367
311,1051.457840819543,0.2171052631578947
312,1051.457840819543,0.20394736842105265
313,1054.255319148936,0.1907894736842105
314,1054.255319148936,0.19736842105263153
315,1054.255319148936,0.20394736842105265
316,1057.0527974783295,0.1907894736842105
317,1059.8502758077225,0.1907894736842105
318,1059.8502758077225,0.19736842105263153
319,1059.8502758077225,0.20394736842105265
320,1062.647754137116,0.20394736842105265
321,1065.445232466509,0.20394736842105265
322,1065.445232466509,0.19736842105263153
323,1065.445232466509,0.1907894736842105
324,1068.2427107959024,0.1907894736842105
325,1068.2427107959024,0.17763157894736847
326,1068.2427107959024,0.1842105263157895
327,1071.0401891252955,0.17105263157894735
328,1071.0401891252955,0.17763157894736847
329,1073.837667454689,0.16447368421052633
330,1073.837667454689,0.1578947368421053
331,1073.837667454689,0.17105263157894735
332,1076.635145784082,0.1578947368421053
333,1079.432624113475,0.1578947368421053
334,1082.2301024428684,0.16447368421052633
335,1082.2301024428684,0.1578947368421053
336,1085.0275807722614,0.17763157894736847
337,1085.0275807722614,0.16447368421052633
338,1085.0275807722614,0.1842105263157895
339,1085.0275807722614,0.1907894736842105
340,1085.0275807722614,0.17105263157894735
341,1087.825059101655,0.1907894736842105
342,1087.825059101655,0.19736842105263153
343,1087.825059101655,0.20394736842105265
344,1090.622537431048,0.2171052631578947
345,1090.622537431048,0.20394736842105265
346,1090.622537431048,0.23026315789473684
347,1090.622537431048,0.22368421052631582
348,1090.622537431048,0.21052631578947367
349,1093.4200157604414,0.23026315789473684
350,1093.4200157604414,0.22368421052631582
351,1096.2174940898344,0.22368421052631582
352,1096.2174940898344,0.2171052631578947
353,1099.014972419228,0.2171052631578947
354,1101.812450748621,0.22368421052631582
355,1101.812450748621,0.2171052631578947
356,1104.6099290780144,0.24342105263157898
357,1104.6099290780144,0.22368421052631582
358,1104.6099290780144,0.23026315789473684
359,1104.6099290780144,0.23684210526315785
360,1107.4074074074074,0.24342105263157898
361,1107.4074074074074,0.25
362,1107.4074074074074,0.256578947368421
363,1110.2048857368004,0.26315789473684215
364,1110.2048857368004,0.256578947368421
365,1113.0023640661939,0.26973684210526316
366,1113.0023640661939,0.26315789473684215
367,1115.799842395587,0.26973684210526316
368,1115.799842395587,0.26315789473684215
369,1118.5973207249804,0.26973684210526316
370,1121.3947990543734,0.2763157894736842
371,1121.3947990543734,0.26973684210526316
372,1121.3947990543734,0.2828947368421053
373,1124.1922773837669,0.2828947368421053
374,1124.1922773837669,0.2894736842105263
375,1126.9897557131599,0.29605263157894735
376,1126.9897557131599,0.2894736842105263
377,1129.7872340425533,0.3223684210526315
378,1129.7872340425533,0.3092105263157895
379,1129.7872340425533,0.3157894736842105
380,1129.7872340425533,0.3026315789473685
381,1129.7872340425533,0.29605263157894735
382,1132.5847123719464,0.32894736842105265
383,1132.5847123719464,0.3223684210526315
384,1135.3821907013398,0.36184210526315785
385,1135.3821907013398,0.32894736842105265
386,1135.3821907013398,0.35526315789473684
387,1135.3821907013398,0.3486842105263158
388,1135.3821907013398,0.3355263157894737
389,1135.3821907013398,0.3421052631578947
390,1138.1796690307328,0.368421052631579
391,1138.1796690307328,0.36184210526315785
392,1138.1796690307328,0.375
393,1140.9771473601263,0.4144736842105263
394,1140.9771473601263,0.4078947368421053
395,1140.9771473601263,0.4013157894736842
396,1140.9771473601263,0.39473684210526316
397,1140.9771473601263,0.38815789473684215
398,1140.9771473601263,0.381578947368421
399,1140.9771473601263,0.375
400,1140.9771473601263,0.42105263157894735
401,1143.7746256895193,0.42105263157894735
402,1143.7746256895193,0.4473684210526315
403,1143.7746256895193,0.45394736842105265
404,1143.7746256895193,0.4407894736842105
405,1143.7746256895193,0.4276315789473685
406,1143.7746256895193,0.4342105263157895
407,1146.5721040189123,0.45394736842105265
408,1146.5721040189123,0.5328947368421053
409,1146.5721040189123,0.4605263157894737
410,1146.5721040189123,0.4736842105263158
411,1146.5721040189123,0.4671052631578947
412,1146.5721040189123,0.5197368421052632
413,1146.5721040189123,0.48026315789473684
414,1146.5721040189123,0.48684210526315785
415,1146.5721040189123,0.5
416,1146.5721040189123,0.506578947368421
417,1146.5721040189123,0.513157894736842
418,1146.5721040189123,0.5263157894736843
419,1146.5721040189123,0.493421052631579
420,1149.3695823483058,0.5526315789473684
421,1149.3695823483058,0.5460526315789473
422,1149.3695823483058,0.5328947368421053
423,1149.3695823483058,0.5394736842105263
424,1149.3695823483058,0.5592105263157895
425,1149.3695823483058,0.5723684210526316
426,1149.3695823483058,0.5657894736842105
427,1152.1670606776988,0.5723684210526316
428,1152.1670606776988,0.5921052631578947
429,1152.1670606776988,0.5855263157894737
430,1152.1670606776988,0.5986842105263157
431,1152.1670606776988,0.5789473684210527
432,1152.1670606776988,0.611842105263158
433,1152.1670606776988,0.6052631578947368
434,1152.1670606776988,0.618421052631579
435,1154.9645390070923,0.625
436,1154.9645390070923,0.618421052631579
437,1157.7620173364853,0.625
438,1160.5594956658788,0.611842105263158
439,1160.5594956658788,0.5986842105263157
440,1160.5594956658788,0.6052631578947368
441,1160.5594956658788,0.618421052631579
442,1160.5594956658788,0.625
443,1163.3569739952718,0.5921052631578947
444,1163.3569739952718,0.5986842105263157
445,1166.1544523246653,0.5921052631578947
446,1166.1544523246653,0.6052631578947368
447,1166.1544523246653,0.5986842105263157
448,1168.9519306540583,0.611842105263158
449,1168.9519306540583,0.618421052631579
450,1168.9519306540583,0.6052631578947368
451,1171.7494089834518,0.625
452,1171.7494089834518,0.618421052631579
453,1174.5468873128448,0.625
454,1174.5468873128448,0.618421052631579
455,1177.3443656422378,0.611842105263158
456,1177.3443656422378,0.5921052631578947
457,1177.3443656422378,0.5789473684210527
458,1177.3443656422378,0.5986842105263157
459,1177.3443656422378,0.6052631578947368
460,1177.3443656422378,0.618421052631579
461,1177.3443656422378,0.5855263157894737
462,1180.1418439716313,0.5592105263157895
463,1180.1418439716313,0.5657894736842105
464,1180.1418439716313,0.5526315789473684
465,1180.1418439716313,0.5789473684210527
466,1180.1418439716313,0.5723684210526316
467,1180.1418439716313,0.5460526315789473
468,1182.9393223010243,0.5197368421052632
469,1182.9393223010243,0.5460526315789473
470,1182.9393223010243,0.5263157894736843
471,1182.9393223010243,0.5328947368421053
472,1182.9393223010243,0.5394736842105263
473,1185.7368006304177,0.4736842105263158
474,1185.7368006304177,0.5
475,1185.7368006304177,0.493421052631579
