,wavenumbers,absorbance
0,452.797478329393,0.03289473684210531
1,452.797478329393,0.02631578947368418
2,455.5949566587865,0.02631578947368418
3,455.5949566587865,0.03289473684210531
4,458.3924349881795,0.03947368421052633
5,458.3924349881795,0.03289473684210531
6,461.189913317573,0.03947368421052633
7,463.987391646966,0.03947368421052633
8,466.78486997635946,0.03947368421052633
9,469.5823483057525,0.03947368421052633
10,472.37982663514595,0.03947368421052633
11,475.17730496453896,0.03947368421052633
12,477.97478329393243,0.03947368421052633
13,480.77226162332545,0.03947368421052633
14,483.56973995271846,0.046052631578947345
15,483.56973995271846,0.03947368421052633
16,486.36721828211193,0.046052631578947345
17,489.16469661150495,0.046052631578947345
18,491.9621749408984,0.046052631578947345
19,494.75965327029144,0.046052631578947345
20,497.5571315996849,0.046052631578947345
21,500.3546099290779,0.046052631578947345
22,503.1520882584714,0.046052631578947345
23,505.9495665878644,0.046052631578947345
24,508.7470449172579,0.046052631578947345
25,511.5445232466509,0.046052631578947345
26,514.3420015760439,0.046052631578947345
27,517.1394799054374,0.046052631578947345
28,519.9369582348304,0.046052631578947345
29,522.7344365642239,0.046052631578947345
30,522.7344365642239,0.03947368421052633
31,525.5319148936169,0.03947368421052633
32,528.3293932230104,0.03947368421052633
33,531.1268715524034,0.03947368421052633
34,533.9243498817968,0.03947368421052633
35,536.7218282111899,0.03947368421052633
36,539.5193065405833,0.03947368421052633
37,542.3167848699763,0.03947368421052633
38,545.1142631993694,0.03947368421052633
39,547.9117415287628,0.03947368421052633
40,550.7092198581558,0.03947368421052633
41,550.7092198581558,0.03289473684210531
42,553.5066981875493,0.03289473684210531
43,556.3041765169423,0.03289473684210531
44,559.1016548463358,0.03289473684210531
45,561.8991331757288,0.02631578947368418
46,561.8991331757288,0.03289473684210531
47,564.6966115051223,0.02631578947368418
48,567.4940898345153,0.02631578947368418
49,570.2915681639088,0.02631578947368418
50,573.0890464933018,0.02631578947368418
51,575.8865248226948,0.02631578947368418
52,578.6840031520883,0.02631578947368418
53,581.4814814814813,0.02631578947368418
54,581.4814814814813,0.019736842105263164
55,584.2789598108748,0.019736842105263164
56,587.0764381402678,0.019736842105263164
57,589.8739164696613,0.019736842105263164
58,592.6713947990543,0.019736842105263164
59,595.4688731284477,0.02631578947368418
60,595.4688731284477,0.019736842105263164
61,598.2663514578408,0.02631578947368418
62,601.0638297872342,0.02631578947368418
63,603.8613081166272,0.02631578947368418
64,606.6587864460207,0.02631578947368418
65,609.4562647754137,0.02631578947368418
66,612.2537431048067,0.02631578947368418
67,615.0512214342002,0.02631578947368418
68,617.8486997635932,0.02631578947368418
69,620.6461780929867,0.019736842105263164
70,620.6461780929867,0.02631578947368418
71,623.4436564223797,0.019736842105263164
72,626.2411347517732,0.019736842105263164
73,629.0386130811662,0.019736842105263164
74,631.8360914105597,0.019736842105263164
75,634.6335697399527,0.019736842105263164
76,637.4310480693462,0.019736842105263164
77,640.2285263987392,0.019736842105263164
78,643.0260047281322,0.019736842105263164
79,645.8234830575257,0.019736842105263164
80,648.6209613869187,0.019736842105263164
81,651.4184397163122,0.019736842105263164
82,654.2159180457052,0.019736842105263164
83,657.0133963750986,0.019736842105263164
84,659.8108747044917,0.019736842105263164
85,662.6083530338851,0.019736842105263164
86,665.4058313632781,0.019736842105263164
87,668.2033096926716,0.019736842105263164
88,671.0007880220646,0.019736842105263164
89,673.7982663514576,0.019736842105263164
90,676.5957446808511,0.019736842105263164
91,679.3932230102441,0.019736842105263164
92,682.1907013396376,0.019736842105263164
93,682.1907013396376,0.02631578947368418
94,684.9881796690306,0.02631578947368418
95,687.7856579984241,0.052631578947368474
96,687.7856579984241,0.046052631578947345
97,687.7856579984241,0.03289473684210531
98,687.7856579984241,0.03947368421052633
99,687.7856579984241,0.02631578947368418
100,690.5831363278171,0.07894736842105265
101,690.5831363278171,0.07236842105263153
102,690.5831363278171,0.06578947368421051
103,690.5831363278171,0.05921052631578949
104,690.5831363278171,0.052631578947368474
105,693.3806146572106,0.1907894736842105
106,693.3806146572106,0.07894736842105265
107,693.3806146572106,0.17763157894736847
108,693.3806146572106,0.20394736842105265
109,693.3806146572106,0.19736842105263153
110,693.3806146572106,0.09868421052631582
111,693.3806146572106,0.14473684210526316
112,693.3806146572106,0.10526315789473684
113,693.3806146572106,0.15131578947368418
114,693.3806146572106,0.1842105263157895
115,693.3806146572106,0.08552631578947367
116,693.3806146572106,0.13157894736842102
117,693.3806146572106,0.17105263157894735
118,693.3806146572106,0.23026315789473684
119,693.3806146572106,0.23684210526315785
120,693.3806146572106,0.22368421052631582
121,693.3806146572106,0.16447368421052633
122,693.3806146572106,0.13815789473684215
123,693.3806146572106,0.11184210526315785
124,693.3806146572106,0.09210526315789469
125,693.3806146572106,0.1578947368421053
126,693.3806146572106,0.125
127,693.3806146572106,0.11842105263157898
128,693.3806146572106,0.21052631578947367
129,693.3806146572106,0.2171052631578947
130,696.1780929866036,0.256578947368421
131,696.1780929866036,0.29605263157894735
132,696.1780929866036,0.23684210526315785
133,696.1780929866036,0.24342105263157898
134,696.1780929866036,0.3092105263157895
135,696.1780929866036,0.3026315789473685
136,696.1780929866036,0.26315789473684215
137,696.1780929866036,0.25
138,696.1780929866036,0.2763157894736842
139,696.1780929866036,0.26973684210526316
140,696.1780929866036,0.2828947368421053
141,696.1780929866036,0.2894736842105263
142,698.9755713159971,0.3092105263157895
143,698.9755713159971,0.3026315789473685
144,698.9755713159971,0.2763157894736842
145,698.9755713159971,0.26315789473684215
146,698.9755713159971,0.29605263157894735
147,698.9755713159971,0.26973684210526316
148,698.9755713159971,0.2828947368421053
149,698.9755713159971,0.256578947368421
150,698.9755713159971,0.2894736842105263
151,701.7730496453901,0.23684210526315785
152,701.7730496453901,0.24342105263157898
153,701.7730496453901,0.2171052631578947
154,701.7730496453901,0.256578947368421
155,701.7730496453901,0.19736842105263153
156,701.7730496453901,0.22368421052631582
157,701.7730496453901,0.23026315789473684
158,701.7730496453901,0.25
159,701.7730496453901,0.20394736842105265
160,701.7730496453901,0.1907894736842105
161,701.7730496453901,0.21052631578947367
162,704.5705279747831,0.125
163,704.5705279747831,0.1578947368421053
164,704.5705279747831,0.1842105263157895
165,704.5705279747831,0.17105263157894735
166,704.5705279747831,0.15131578947368418
167,704.5705279747831,0.16447368421052633
168,704.5705279747831,0.17763157894736847
169,704.5705279747831,0.14473684210526316
170,704.5705279747831,0.13815789473684215
171,704.5705279747831,0.13157894736842102
172,704.5705279747831,0.1907894736842105
173,707.3680063041766,0.08552631578947367
174,707.3680063041766,0.052631578947368474
175,707.3680063041766,0.09210526315789469
176,707.3680063041766,0.07894736842105265
177,707.3680063041766,0.11184210526315785
178,707.3680063041766,0.11842105263157898
179,707.3680063041766,0.10526315789473684
180,707.3680063041766,0.125
181,707.3680063041766,0.09868421052631582
182,707.3680063041766,0.05921052631578949
183,707.3680063041766,0.06578947368421051
184,707.3680063041766,0.07236842105263153
185,710.1654846335696,0.046052631578947345
186,710.1654846335696,0.052631578947368474
187,710.1654846335696,0.03947368421052633
188,712.962962962963,0.02631578947368418
189,712.962962962963,0.03947368421052633
190,712.962962962963,0.03289473684210531
191,715.7604412923561,0.019736842105263164
192,715.7604412923561,0.02631578947368418
193,718.5579196217495,0.019736842105263164
194,721.3553979511425,0.019736842105263164
195,724.152876280536,0.02631578947368418
196,724.152876280536,0.019736842105263164
197,726.950354609929,0.02631578947368418
198,729.7478329393225,0.02631578947368418
199,729.7478329393225,0.03289473684210531
200,732.5453112687155,0.046052631578947345
201,732.5453112687155,0.03947368421052633
202,732.5453112687155,0.03289473684210531
203,735.3427895981085,0.046052631578947345
204,738.140267927502,0.046052631578947345
205,738.140267927502,0.052631578947368474
206,740.937746256895,0.052631578947368474
207,740.937746256895,0.05921052631578949
208,743.7352245862885,0.07236842105263153
209,743.7352245862885,0.05921052631578949
210,743.7352245862885,0.06578947368421051
211,746.5327029156815,0.07236842105263153
212,746.5327029156815,0.08552631578947367
213,746.5327029156815,0.07894736842105265
214,749.330181245075,0.09210526315789469
215,749.330181245075,0.11184210526315785
216,749.330181245075,0.08552631578947367
217,749.330181245075,0.09868421052631582
218,749.330181245075,0.10526315789473684
219,749.330181245075,0.11842105263157898
220,752.127659574468,0.11842105263157898
221,752.127659574468,0.13157894736842102
222,752.127659574468,0.125
223,754.9251379038615,0.14473684210526316
224,754.9251379038615,0.15131578947368418
225,754.9251379038615,0.1578947368421053
226,754.9251379038615,0.13815789473684215
227,754.9251379038615,0.13157894736842102
228,757.7226162332545,0.1578947368421053
229,757.7226162332545,0.15131578947368418
230,760.520094562648,0.13815789473684215
231,760.520094562648,0.14473684210526316
232,760.520094562648,0.15131578947368418
233,763.317572892041,0.13815789473684215
234,763.317572892041,0.13157894736842102
235,763.317572892041,0.11842105263157898
236,763.317572892041,0.125
237,763.317572892041,0.11184210526315785
238,766.115051221434,0.09210526315789469
239,766.115051221434,0.11184210526315785
240,766.115051221434,0.09868421052631582
241,766.115051221434,0.10526315789473684
242,768.9125295508275,0.07894736842105265
243,768.9125295508275,0.07236842105263153
244,768.9125295508275,0.08552631578947367
245,768.9125295508275,0.09210526315789469
246,771.7100078802205,0.05921052631578949
247,771.7100078802205,0.07236842105263153
248,771.7100078802205,0.06578947368421051
249,774.507486209614,0.046052631578947345
250,774.507486209614,0.052631578947368474
251,774.507486209614,0.05921052631578949
252,777.304964539007,0.046052631578947345
253,777.304964539007,0.03947368421052633
254,780.1024428684004,0.03289473684210531
255,780.1024428684004,0.03947368421052633
256,782.8999211977934,0.03289473684210531
257,785.6973995271869,0.02631578947368418
258,785.6973995271869,0.03289473684210531
259,788.4948778565799,0.02631578947368418
260,791.2923561859734,0.02631578947368418
261,794.0898345153664,0.02631578947368418
262,796.8873128447594,0.02631578947368418
263,799.6847911741529,0.02631578947368418
264,802.4822695035459,0.02631578947368418
265,805.2797478329394,0.02631578947368418
266,808.0772261623324,0.02631578947368418
267,810.8747044917259,0.02631578947368418
268,813.6721828211189,0.02631578947368418
269,816.4696611505124,0.02631578947368418
270,819.2671394799054,0.02631578947368418
271,819.2671394799054,0.03289473684210531
272,822.0646178092989,0.03289473684210531
273,824.8620961386919,0.02631578947368418
274,824.8620961386919,0.03289473684210531
275,827.6595744680849,0.02631578947368418
276,830.4570527974784,0.02631578947368418
277,830.4570527974784,0.03289473684210531
278,833.2545311268714,0.03947368421052633
279,833.2545311268714,0.03289473684210531
280,836.0520094562648,0.046052631578947345
281,836.0520094562648,0.03947368421052633
282,838.8494877856579,0.052631578947368474
283,838.8494877856579,0.046052631578947345
284,841.6469661150513,0.046052631578947345
285,841.6469661150513,0.052631578947368474
286,844.4444444444443,0.052631578947368474
287,844.4444444444443,0.046052631578947345
288,847.2419227738378,0.046052631578947345
289,850.0394011032308,0.046052631578947345
290,850.0394011032308,0.03947368421052633
291,852.8368794326243,0.03289473684210531
292,852.8368794326243,0.03947368421052633
293,855.6343577620173,0.03289473684210531
294,858.4318360914103,0.03289473684210531
295,861.2293144208038,0.03289473684210531
296,861.2293144208038,0.02631578947368418
297,864.0267927501968,0.02631578947368418
298,866.8242710795903,0.02631578947368418
299,869.6217494089833,0.02631578947368418
300,872.4192277383768,0.02631578947368418
301,875.2167060677698,0.03289473684210531
302,875.2167060677698,0.02631578947368418
303,878.0141843971633,0.03289473684210531
304,880.8116627265563,0.03289473684210531
305,880.8116627265563,0.03947368421052633
306,883.6091410559497,0.03947368421052633
307,886.4066193853428,0.03947368421052633
308,889.2040977147362,0.03947368421052633
309,892.0015760441293,0.046052631578947345
310,892.0015760441293,0.03947368421052633
311,894.7990543735223,0.046052631578947345
312,897.5965327029157,0.046052631578947345
313,897.5965327029157,0.052631578947368474
314,900.3940110323088,0.052631578947368474
315,903.1914893617022,0.052631578947368474
316,905.9889676910952,0.046052631578947345
317,905.9889676910952,0.052631578947368474
318,908.7864460204887,0.046052631578947345
319,911.5839243498817,0.046052631578947345
320,914.3814026792752,0.046052631578947345
321,914.3814026792752,0.03947368421052633
322,917.1788810086682,0.03947368421052633
323,919.9763593380617,0.03947368421052633
324,922.7738376674547,0.03947368421052633
325,925.5713159968477,0.046052631578947345
326,925.5713159968477,0.03947368421052633
327,928.3687943262412,0.046052631578947345
328,931.1662726556342,0.046052631578947345
329,933.9637509850277,0.046052631578947345
330,936.7612293144207,0.052631578947368474
331,936.7612293144207,0.046052631578947345
332,939.5587076438142,0.052631578947368474
333,942.3561859732072,0.052631578947368474
334,945.1536643026006,0.052631578947368474
335,947.9511426319937,0.052631578947368474
336,950.7486209613871,0.052631578947368474
337,953.5460992907801,0.05921052631578949
338,953.5460992907801,0.052631578947368474
339,956.3435776201732,0.05921052631578949
340,956.3435776201732,0.06578947368421051
341,959.1410559495666,0.06578947368421051
342,961.9385342789597,0.06578947368421051
343,964.7360126083531,0.06578947368421051
344,967.5334909377461,0.06578947368421051
345,970.3309692671396,0.06578947368421051
346,973.1284475965326,0.06578947368421051
347,975.9259259259261,0.06578947368421051
348,978.7234042553191,0.06578947368421051
349,978.7234042553191,0.07236842105263153
350,981.5208825847126,0.07236842105263153
351,984.3183609141056,0.07236842105263153
352,987.1158392434986,0.07236842105263153
353,987.1158392434986,0.07894736842105265
354,989.9133175728921,0.07236842105263153
355,992.7107959022851,0.07236842105263153
356,992.7107959022851,0.06578947368421051
357,992.7107959022851,0.05921052631578949
358,995.5082742316786,0.05921052631578949
359,998.3057525610716,0.052631578947368474
360,998.3057525610716,0.05921052631578949
361,1001.103230890465,0.052631578947368474
362,1001.103230890465,0.046052631578947345
363,1003.9007092198581,0.046052631578947345
364,1003.9007092198581,0.052631578947368474
365,1006.6981875492515,0.052631578947368474
366,1006.6981875492515,0.05921052631578949
367,1009.4956658786446,0.06578947368421051
368,1009.4956658786446,0.05921052631578949
369,1009.4956658786446,0.07236842105263153
370,1012.293144208038,0.07236842105263153
371,1012.293144208038,0.07894736842105265
372,1015.090622537431,0.08552631578947367
373,1015.090622537431,0.07894736842105265
374,1017.8881008668241,0.08552631578947367
375,1020.6855791962175,0.08552631578947367
376,1023.4830575256105,0.09210526315789469
377,1023.4830575256105,0.08552631578947367
378,1026.280535855004,0.09210526315789469
379,1029.078014184397,0.09210526315789469
380,1029.078014184397,0.07894736842105265
381,1029.078014184397,0.08552631578947367
382,1031.8754925137905,0.07894736842105265
383,1031.8754925137905,0.07236842105263153
384,1034.6729708431835,0.06578947368421051
385,1034.6729708431835,0.07236842105263153
386,1037.470449172577,0.06578947368421051
387,1040.26792750197,0.06578947368421051
388,1043.0654058313635,0.06578947368421051
389,1045.8628841607565,0.06578947368421051
390,1048.6603624901495,0.07236842105263153
391,1048.6603624901495,0.06578947368421051
392,1051.457840819543,0.07236842105263153
393,1051.457840819543,0.07894736842105265
394,1054.255319148936,0.07894736842105265
395,1054.255319148936,0.08552631578947367
396,1054.255319148936,0.09210526315789469
397,1057.0527974783295,0.09868421052631582
398,1057.0527974783295,0.10526315789473684
399,1057.0527974783295,0.09210526315789469
400,1059.8502758077225,0.11842105263157898
401,1059.8502758077225,0.125
402,1059.8502758077225,0.11184210526315785
403,1059.8502758077225,0.10526315789473684
404,1062.647754137116,0.13815789473684215
405,1062.647754137116,0.125
406,1062.647754137116,0.13157894736842102
407,1065.445232466509,0.14473684210526316
408,1065.445232466509,0.1578947368421053
409,1065.445232466509,0.13815789473684215
410,1065.445232466509,0.16447368421052633
411,1065.445232466509,0.15131578947368418
412,1068.2427107959024,0.16447368421052633
413,1068.2427107959024,0.17105263157894735
414,1071.0401891252955,0.17105263157894735
415,1073.837667454689,0.16447368421052633
416,1073.837667454689,0.17105263157894735
417,1076.635145784082,0.1578947368421053
418,1076.635145784082,0.16447368421052633
419,1079.432624113475,0.14473684210526316
420,1079.432624113475,0.15131578947368418
421,1079.432624113475,0.1578947368421053
422,1082.2301024428684,0.14473684210526316
423,1085.0275807722614,0.14473684210526316
424,1085.0275807722614,0.13815789473684215
425,1087.825059101655,0.13815789473684215
426,1090.622537431048,0.13815789473684215
427,1093.4200157604414,0.13815789473684215
428,1096.2174940898344,0.13815789473684215
429,1099.014972419228,0.13815789473684215
430,1099.014972419228,0.14473684210526316
431,1101.812450748621,0.14473684210526316
432,1101.812450748621,0.15131578947368418
433,1104.6099290780144,0.15131578947368418
434,1104.6099290780144,0.17105263157894735
435,1104.6099290780144,0.1578947368421053
436,1104.6099290780144,0.16447368421052633
437,1107.4074074074074,0.1842105263157895
438,1107.4074074074074,0.17763157894736847
439,1107.4074074074074,0.17105263157894735
440,1110.2048857368004,0.19736842105263153
441,1110.2048857368004,0.1907894736842105
442,1110.2048857368004,0.20394736842105265
443,1110.2048857368004,0.1842105263157895
444,1113.0023640661939,0.21052631578947367
445,1113.0023640661939,0.20394736842105265
446,1115.799842395587,0.21052631578947367
447,1118.5973207249804,0.21052631578947367
448,1121.3947990543734,0.23026315789473684
449,1121.3947990543734,0.21052631578947367
450,1121.3947990543734,0.2171052631578947
451,1121.3947990543734,0.22368421052631582
452,1121.3947990543734,0.23684210526315785
453,1124.1922773837669,0.23684210526315785
454,1124.1922773837669,0.24342105263157898
455,1124.1922773837669,0.25
456,1126.9897557131599,0.26973684210526316
457,1126.9897557131599,0.26315789473684215
458,1126.9897557131599,0.25
459,1126.9897557131599,0.256578947368421
460,1129.7872340425533,0.2894736842105263
461,1129.7872340425533,0.2828947368421053
462,1129.7872340425533,0.26973684210526316
463,1129.7872340425533,0.2763157894736842
464,1132.5847123719464,0.29605263157894735
465,1132.5847123719464,0.2894736842105263
466,1135.3821907013398,0.3026315789473685
467,1135.3821907013398,0.3092105263157895
