,wavenumbers,absorbance
0,452.797478329393,0.046052631578947345
1,452.797478329393,0.03947368421052633
2,455.5949566587865,0.03947368421052633
3,455.5949566587865,0.046052631578947345
4,458.3924349881795,0.03947368421052633
5,458.3924349881795,0.046052631578947345
6,461.189913317573,0.03947368421052633
7,463.987391646966,0.03947368421052633
8,466.78486997635946,0.03947368421052633
9,469.5823483057525,0.03947368421052633
10,472.37982663514595,0.03947368421052633
11,475.17730496453896,0.03947368421052633
12,477.97478329393243,0.03947368421052633
13,477.97478329393243,0.03289473684210531
14,480.77226162332545,0.03289473684210531
15,483.56973995271846,0.03947368421052633
16,483.56973995271846,0.03289473684210531
17,486.36721828211193,0.03289473684210531
18,489.16469661150495,0.03289473684210531
19,491.9621749408984,0.03289473684210531
20,494.75965327029144,0.03289473684210531
21,497.5571315996849,0.03289473684210531
22,500.3546099290779,0.03289473684210531
23,503.1520882584714,0.03289473684210531
24,505.9495665878644,0.03289473684210531
25,508.7470449172579,0.03289473684210531
26,511.5445232466509,0.03289473684210531
27,514.3420015760439,0.03289473684210531
28,517.1394799054374,0.03289473684210531
29,517.1394799054374,0.02631578947368418
30,519.9369582348304,0.02631578947368418
31,519.9369582348304,0.03289473684210531
32,522.7344365642239,0.03289473684210531
33,525.5319148936169,0.03289473684210531
34,528.3293932230104,0.03289473684210531
35,531.1268715524034,0.03289473684210531
36,531.1268715524034,0.03947368421052633
37,533.9243498817968,0.03947368421052633
38,533.9243498817968,0.03289473684210531
39,536.7218282111899,0.03289473684210531
40,539.5193065405833,0.03289473684210531
41,542.3167848699763,0.03947368421052633
42,542.3167848699763,0.03289473684210531
43,545.1142631993694,0.03947368421052633
44,545.1142631993694,0.03289473684210531
45,547.9117415287628,0.03289473684210531
46,550.7092198581558,0.03947368421052633
47,550.7092198581558,0.03289473684210531
48,553.5066981875493,0.03289473684210531
49,556.3041765169423,0.03289473684210531
50,556.3041765169423,0.03947368421052633
51,559.1016548463358,0.03947368421052633
52,561.8991331757288,0.03947368421052633
53,564.6966115051223,0.03289473684210531
54,564.6966115051223,0.03947368421052633
55,567.4940898345153,0.03947368421052633
56,567.4940898345153,0.03289473684210531
57,570.2915681639088,0.03289473684210531
58,573.0890464933018,0.03289473684210531
59,575.8865248226948,0.03289473684210531
60,578.6840031520883,0.03289473684210531
61,581.4814814814813,0.03289473684210531
62,581.4814814814813,0.02631578947368418
63,584.2789598108748,0.03289473684210531
64,584.2789598108748,0.02631578947368418
65,587.0764381402678,0.03289473684210531
66,587.0764381402678,0.02631578947368418
67,589.8739164696613,0.03289473684210531
68,589.8739164696613,0.02631578947368418
69,592.6713947990543,0.02631578947368418
70,595.4688731284477,0.02631578947368418
71,598.2663514578408,0.02631578947368418
72,601.0638297872342,0.03289473684210531
73,601.0638297872342,0.02631578947368418
74,603.8613081166272,0.02631578947368418
75,606.6587864460207,0.02631578947368418
76,609.4562647754137,0.02631578947368418
77,612.2537431048067,0.02631578947368418
78,615.0512214342002,0.02631578947368418
79,617.8486997635932,0.02631578947368418
80,620.6461780929867,0.02631578947368418
81,623.4436564223797,0.02631578947368418
82,626.2411347517732,0.02631578947368418
83,629.0386130811662,0.02631578947368418
84,631.8360914105597,0.02631578947368418
85,634.6335697399527,0.02631578947368418
86,637.4310480693462,0.019736842105263164
87,637.4310480693462,0.02631578947368418
88,640.2285263987392,0.02631578947368418
89,640.2285263987392,0.019736842105263164
90,643.0260047281322,0.02631578947368418
91,645.8234830575257,0.02631578947368418
92,645.8234830575257,0.019736842105263164
93,648.6209613869187,0.019736842105263164
94,648.6209613869187,0.02631578947368418
95,651.4184397163122,0.02631578947368418
96,651.4184397163122,0.019736842105263164
97,654.2159180457052,0.02631578947368418
98,654.2159180457052,0.019736842105263164
99,657.0133963750986,0.02631578947368418
100,659.8108747044917,0.02631578947368418
101,662.6083530338851,0.02631578947368418
102,665.4058313632781,0.02631578947368418
103,668.2033096926716,0.02631578947368418
104,671.0007880220646,0.02631578947368418
105,673.7982663514576,0.02631578947368418
106,673.7982663514576,0.019736842105263164
107,676.5957446808511,0.019736842105263164
108,676.5957446808511,0.02631578947368418
109,679.3932230102441,0.019736842105263164
110,679.3932230102441,0.02631578947368418
111,682.1907013396376,0.019736842105263164
112,684.9881796690306,0.019736842105263164
113,687.7856579984241,0.019736842105263164
114,687.7856579984241,0.02631578947368418
115,690.5831363278171,0.02631578947368418
116,690.5831363278171,0.03289473684210531
117,693.3806146572106,0.046052631578947345
118,693.3806146572106,0.03289473684210531
119,693.3806146572106,0.03947368421052633
120,696.1780929866036,0.046052631578947345
121,698.9755713159971,0.046052631578947345
122,698.9755713159971,0.05921052631578949
123,698.9755713159971,0.052631578947368474
124,701.7730496453901,0.05921052631578949
125,704.5705279747831,0.05921052631578949
126,707.3680063041766,0.052631578947368474
127,707.3680063041766,0.05921052631578949
128,707.3680063041766,0.046052631578947345
129,710.1654846335696,0.046052631578947345
130,712.962962962963,0.03947368421052633
131,712.962962962963,0.046052631578947345
132,715.7604412923561,0.03947368421052633
133,718.5579196217495,0.046052631578947345
134,718.5579196217495,0.03947368421052633
135,721.3553979511425,0.046052631578947345
136,724.152876280536,0.03947368421052633
137,724.152876280536,0.046052631578947345
138,726.950354609929,0.03947368421052633
139,729.7478329393225,0.03947368421052633
140,732.5453112687155,0.03947368421052633
141,735.3427895981085,0.03947368421052633
142,738.140267927502,0.03947368421052633
143,740.937746256895,0.03947368421052633
144,740.937746256895,0.046052631578947345
145,743.7352245862885,0.052631578947368474
146,743.7352245862885,0.046052631578947345
147,746.5327029156815,0.052631578947368474
148,749.330181245075,0.052631578947368474
149,752.127659574468,0.052631578947368474
150,752.127659574468,0.046052631578947345
151,754.9251379038615,0.03947368421052633
152,754.9251379038615,0.046052631578947345
153,757.7226162332545,0.03947368421052633
154,760.520094562648,0.03947368421052633
155,763.317572892041,0.03947368421052633
156,766.115051221434,0.03947368421052633
157,768.9125295508275,0.03947368421052633
158,768.9125295508275,0.046052631578947345
159,771.7100078802205,0.046052631578947345
160,774.507486209614,0.052631578947368474
161,774.507486209614,0.046052631578947345
162,777.304964539007,0.046052631578947345
163,780.1024428684004,0.046052631578947345
164,782.8999211977934,0.046052631578947345
165,785.6973995271869,0.046052631578947345
166,785.6973995271869,0.052631578947368474
167,788.4948778565799,0.052631578947368474
168,791.2923561859734,0.052631578947368474
169,794.0898345153664,0.052631578947368474
170,796.8873128447594,0.052631578947368474
171,799.6847911741529,0.052631578947368474
172,799.6847911741529,0.05921052631578949
173,802.4822695035459,0.05921052631578949
174,802.4822695035459,0.06578947368421051
175,805.2797478329394,0.07894736842105265
176,805.2797478329394,0.07236842105263153
177,805.2797478329394,0.06578947368421051
178,808.0772261623324,0.07894736842105265
179,808.0772261623324,0.08552631578947367
180,810.8747044917259,0.08552631578947367
181,810.8747044917259,0.09210526315789469
182,810.8747044917259,0.09868421052631582
183,813.6721828211189,0.09868421052631582
184,816.4696611505124,0.09868421052631582
185,819.2671394799054,0.09868421052631582
186,819.2671394799054,0.09210526315789469
187,822.0646178092989,0.09210526315789469
188,824.8620961386919,0.07894736842105265
189,824.8620961386919,0.08552631578947367
190,824.8620961386919,0.09210526315789469
191,827.6595744680849,0.07894736842105265
192,827.6595744680849,0.07236842105263153
193,830.4570527974784,0.05921052631578949
194,830.4570527974784,0.07236842105263153
195,830.4570527974784,0.06578947368421051
196,833.2545311268714,0.05921052631578949
197,833.2545311268714,0.052631578947368474
198,836.0520094562648,0.052631578947368474
199,838.8494877856579,0.046052631578947345
200,838.8494877856579,0.052631578947368474
201,841.6469661150513,0.052631578947368474
202,841.6469661150513,0.046052631578947345
203,847.2419227738378,0.052631578947368474
204,847.2419227738378,0.05921052631578949
205,850.0394011032308,0.05921052631578949
206,852.8368794326243,0.05921052631578949
207,852.8368794326243,0.052631578947368474
208,855.6343577620173,0.052631578947368474
209,858.4318360914103,0.05921052631578949
210,858.4318360914103,0.052631578947368474
211,861.2293144208038,0.06578947368421051
212,861.2293144208038,0.05921052631578949
213,864.0267927501968,0.06578947368421051
214,864.0267927501968,0.07236842105263153
215,866.8242710795903,0.07236842105263153
216,869.6217494089833,0.07236842105263153
217,872.4192277383768,0.07236842105263153
218,875.2167060677698,0.07236842105263153
219,878.0141843971633,0.07236842105263153
220,878.0141843971633,0.06578947368421051
221,880.8116627265563,0.06578947368421051
222,880.8116627265563,0.05921052631578949
223,883.6091410559497,0.05921052631578949
224,886.4066193853428,0.046052631578947345
225,886.4066193853428,0.05921052631578949
226,886.4066193853428,0.052631578947368474
227,889.2040977147362,0.046052631578947345
228,892.0015760441293,0.03947368421052633
229,892.0015760441293,0.046052631578947345
230,894.7990543735223,0.03947368421052633
231,897.5965327029157,0.03289473684210531
232,897.5965327029157,0.03947368421052633
233,900.3940110323088,0.03289473684210531
234,903.1914893617022,0.03289473684210531
235,905.9889676910952,0.03289473684210531
236,908.7864460204887,0.03289473684210531
237,908.7864460204887,0.03947368421052633
238,911.5839243498817,0.03947368421052633
239,914.3814026792752,0.03947368421052633
240,917.1788810086682,0.03947368421052633
241,919.9763593380617,0.03947368421052633
242,919.9763593380617,0.03289473684210531
243,922.7738376674547,0.03289473684210531
244,925.5713159968477,0.03289473684210531
245,928.3687943262412,0.03289473684210531
246,931.1662726556342,0.03289473684210531
247,933.9637509850277,0.03289473684210531
248,936.7612293144207,0.03289473684210531
249,939.5587076438142,0.03289473684210531
250,942.3561859732072,0.03289473684210531
251,942.3561859732072,0.03947368421052633
252,945.1536643026006,0.03947368421052633
253,947.9511426319937,0.03947368421052633
254,947.9511426319937,0.046052631578947345
255,950.7486209613871,0.046052631578947345
256,953.5460992907801,0.046052631578947345
257,956.3435776201732,0.046052631578947345
258,959.1410559495666,0.046052631578947345
259,961.9385342789597,0.046052631578947345
260,964.7360126083531,0.046052631578947345
261,967.5334909377461,0.046052631578947345
262,970.3309692671396,0.046052631578947345
263,973.1284475965326,0.046052631578947345
264,973.1284475965326,0.03947368421052633
265,975.9259259259261,0.03947368421052633
266,978.7234042553191,0.046052631578947345
267,978.7234042553191,0.03947368421052633
268,981.5208825847126,0.046052631578947345
269,984.3183609141056,0.046052631578947345
270,987.1158392434986,0.046052631578947345
271,987.1158392434986,0.052631578947368474
272,989.9133175728921,0.052631578947368474
273,992.7107959022851,0.05921052631578949
274,992.7107959022851,0.052631578947368474
275,995.5082742316786,0.05921052631578949
276,998.3057525610716,0.05921052631578949
277,1001.103230890465,0.05921052631578949
278,1001.103230890465,0.052631578947368474
279,1003.9007092198581,0.052631578947368474
280,1006.6981875492515,0.052631578947368474
281,1009.4956658786446,0.05921052631578949
282,1009.4956658786446,0.052631578947368474
283,1012.293144208038,0.05921052631578949
284,1015.090622537431,0.05921052631578949
285,1015.090622537431,0.06578947368421051
286,1017.8881008668241,0.05921052631578949
287,1017.8881008668241,0.06578947368421051
288,1020.6855791962175,0.05921052631578949
289,1023.4830575256105,0.06578947368421051
290,1023.4830575256105,0.05921052631578949
291,1026.280535855004,0.06578947368421051
292,1029.078014184397,0.06578947368421051
293,1031.8754925137905,0.06578947368421051
294,1034.6729708431835,0.06578947368421051
295,1034.6729708431835,0.05921052631578949
296,1034.6729708431835,0.052631578947368474
297,1037.470449172577,0.046052631578947345
298,1037.470449172577,0.052631578947368474
299,1040.26792750197,0.046052631578947345
300,1043.0654058313635,0.046052631578947345
301,1045.8628841607565,0.046052631578947345
302,1048.6603624901495,0.046052631578947345
303,1051.457840819543,0.046052631578947345
304,1051.457840819543,0.052631578947368474
305,1054.255319148936,0.052631578947368474
306,1057.0527974783295,0.052631578947368474
307,1059.8502758077225,0.052631578947368474
308,1059.8502758077225,0.046052631578947345
309,1062.647754137116,0.046052631578947345
310,1065.445232466509,0.046052631578947345
311,1068.2427107959024,0.046052631578947345
312,1071.0401891252955,0.046052631578947345
313,1073.837667454689,0.046052631578947345
314,1073.837667454689,0.03947368421052633
315,1076.635145784082,0.03947368421052633
316,1079.432624113475,0.03947368421052633
317,1082.2301024428684,0.03947368421052633
318,1085.0275807722614,0.03947368421052633
319,1087.825059101655,0.03947368421052633
320,1090.622537431048,0.03947368421052633
321,1090.622537431048,0.03289473684210531
322,1093.4200157604414,0.03289473684210531
323,1096.2174940898344,0.03947368421052633
324,1096.2174940898344,0.03289473684210531
325,1099.014972419228,0.03947368421052633
326,1101.812450748621,0.03947368421052633
327,1104.6099290780144,0.03947368421052633
328,1107.4074074074074,0.046052631578947345
329,1107.4074074074074,0.03947368421052633
330,1110.2048857368004,0.046052631578947345
331,1113.0023640661939,0.046052631578947345
332,1113.0023640661939,0.03947368421052633
333,1115.799842395587,0.03947368421052633
334,1118.5973207249804,0.03947368421052633
335,1121.3947990543734,0.03947368421052633
336,1124.1922773837669,0.03947368421052633
337,1126.9897557131599,0.03947368421052633
338,1129.7872340425533,0.03947368421052633
339,1132.5847123719464,0.046052631578947345
340,1132.5847123719464,0.03947368421052633
341,1135.3821907013398,0.046052631578947345
342,1138.1796690307328,0.046052631578947345
343,1140.9771473601263,0.046052631578947345
344,1140.9771473601263,0.03947368421052633
345,1143.7746256895193,0.03947368421052633
346,1146.5721040189123,0.03947368421052633
347,1149.3695823483058,0.046052631578947345
348,1149.3695823483058,0.03947368421052633
349,1152.1670606776988,0.046052631578947345
350,1154.9645390070923,0.046052631578947345
351,1157.7620173364853,0.046052631578947345
352,1160.5594956658788,0.046052631578947345
353,1163.3569739952718,0.046052631578947345
354,1166.1544523246653,0.046052631578947345
355,1168.9519306540583,0.046052631578947345
356,1171.7494089834518,0.046052631578947345
357,1174.5468873128448,0.046052631578947345
358,1177.3443656422378,0.046052631578947345
359,1180.1418439716313,0.046052631578947345
360,1180.1418439716313,0.03947368421052633
361,1182.9393223010243,0.03947368421052633
362,1185.7368006304177,0.03947368421052633
363,1188.5342789598108,0.03947368421052633
364,1191.3317572892042,0.03947368421052633
365,1194.1292356185972,0.03947368421052633
366,1194.1292356185972,0.046052631578947345
367,1196.9267139479907,0.046052631578947345
368,1199.7241922773837,0.046052631578947345
369,1202.5216706067772,0.046052631578947345
370,1205.3191489361702,0.046052631578947345
371,1208.1166272655632,0.046052631578947345
372,1208.1166272655632,0.03947368421052633
373,1210.9141055949567,0.03947368421052633
374,1213.7115839243497,0.03947368421052633
375,1216.5090622537432,0.03947368421052633
376,1219.3065405831362,0.03947368421052633
377,1222.1040189125297,0.03947368421052633
378,1224.9014972419227,0.03947368421052633
379,1227.6989755713162,0.03947368421052633
380,1230.4964539007092,0.03947368421052633
381,1233.2939322301027,0.03947368421052633
382,1236.0914105594957,0.03947368421052633
383,1236.0914105594957,0.046052631578947345
384,1238.8888888888887,0.046052631578947345
385,1238.8888888888887,0.03947368421052633
386,1241.6863672182822,0.046052631578947345
387,1244.4838455476752,0.046052631578947345
388,1247.2813238770686,0.046052631578947345
389,1250.0788022064617,0.052631578947368474
390,1250.0788022064617,0.046052631578947345
391,1252.8762805358551,0.05921052631578949
392,1252.8762805358551,0.052631578947368474
393,1255.6737588652481,0.05921052631578949
394,1258.4712371946416,0.05921052631578949
395,1258.4712371946416,0.052631578947368474
396,1261.2687155240346,0.052631578947368474
397,1264.066193853428,0.052631578947368474
398,1266.8636721828211,0.052631578947368474
399,1269.6611505122141,0.052631578947368474
400,1272.4586288416076,0.05921052631578949
401,1272.4586288416076,0.052631578947368474
402,1275.2561071710006,0.05921052631578949
403,1278.053585500394,0.05921052631578949
404,1280.851063829787,0.05921052631578949
405,1280.851063829787,0.06578947368421051
406,1283.6485421591806,0.06578947368421051
407,1286.4460204885736,0.06578947368421051
408,1289.243498817967,0.06578947368421051
409,1292.04097714736,0.06578947368421051
410,1294.8384554767536,0.06578947368421051
411,1297.6359338061466,0.05921052631578949
412,1297.6359338061466,0.06578947368421051
413,1300.4334121355396,0.05921052631578949
414,1303.230890464933,0.05921052631578949
415,1306.028368794326,0.05921052631578949
416,1308.8258471237195,0.05921052631578949
417,1311.6233254531126,0.05921052631578949
418,1314.420803782506,0.05921052631578949
419,1314.420803782506,0.06578947368421051
420,1317.218282111899,0.06578947368421051
421,1320.0157604412925,0.07236842105263153
422,1320.0157604412925,0.06578947368421051
423,1322.8132387706855,0.07236842105263153
424,1325.610717100079,0.07236842105263153
425,1328.408195429472,0.07236842105263153
426,1331.205673758865,0.07236842105263153
427,1334.0031520882585,0.06578947368421051
428,1334.0031520882585,0.07236842105263153
429,1336.8006304176515,0.06578947368421051
430,1339.598108747045,0.06578947368421051
431,1342.395587076438,0.06578947368421051
432,1345.1930654058315,0.06578947368421051
433,1347.9905437352245,0.06578947368421051
434,1350.788022064618,0.06578947368421051
435,1350.788022064618,0.05921052631578949
436,1353.585500394011,0.05921052631578949
437,1356.3829787234044,0.05921052631578949
438,1356.3829787234044,0.06578947368421051
439,1359.1804570527975,0.06578947368421051
440,1359.1804570527975,0.07236842105263153
441,1359.1804570527975,0.07894736842105265
442,1361.9779353821905,0.07894736842105265
443,1364.775413711584,0.09210526315789469
444,1364.775413711584,0.07894736842105265
445,1364.775413711584,0.08552631578947367
446,1367.572892040977,0.09210526315789469
447,1367.572892040977,0.09868421052631582
448,1367.572892040977,0.10526315789473684
449,1370.3703703703704,0.11184210526315785
450,1370.3703703703704,0.125
451,1370.3703703703704,0.10526315789473684
452,1370.3703703703704,0.11842105263157898
453,1373.1678486997635,0.125
454,1375.965327029157,0.11842105263157898
455,1375.965327029157,0.11184210526315785
456,1375.965327029157,0.09868421052631582
457,1375.965327029157,0.125
458,1375.965327029157,0.10526315789473684
459,1378.76280535855,0.09868421052631582
460,1378.76280535855,0.09210526315789469
461,1381.5602836879434,0.07236842105263153
