,wavenumbers,absorbance
0,452.797478329393,0.019736842105263164
1,455.5949566587865,0.019736842105263164
2,458.3924349881795,0.02631578947368418
3,458.3924349881795,0.019736842105263164
4,461.189913317573,0.02631578947368418
5,463.987391646966,0.02631578947368418
6,466.78486997635946,0.02631578947368418
7,469.5823483057525,0.02631578947368418
8,472.37982663514595,0.02631578947368418
9,475.17730496453896,0.02631578947368418
10,475.17730496453896,0.019736842105263164
11,477.97478329393243,0.019736842105263164
12,480.77226162332545,0.019736842105263164
13,483.56973995271846,0.019736842105263164
14,486.36721828211193,0.019736842105263164
15,489.16469661150495,0.019736842105263164
16,491.9621749408984,0.019736842105263164
17,494.75965327029144,0.019736842105263164
18,497.5571315996849,0.019736842105263164
19,500.3546099290779,0.019736842105263164
20,500.3546099290779,0.02631578947368418
21,503.1520882584714,0.02631578947368418
22,505.9495665878644,0.02631578947368418
23,505.9495665878644,0.03289473684210531
24,508.7470449172579,0.03289473684210531
25,511.5445232466509,0.03289473684210531
26,514.3420015760439,0.03289473684210531
27,514.3420015760439,0.02631578947368418
28,517.1394799054374,0.02631578947368418
29,519.9369582348304,0.02631578947368418
30,522.7344365642239,0.02631578947368418
31,525.5319148936169,0.03289473684210531
32,525.5319148936169,0.02631578947368418
33,528.3293932230104,0.03289473684210531
34,531.1268715524034,0.03289473684210531
35,533.9243498817968,0.03947368421052633
36,533.9243498817968,0.03289473684210531
37,533.9243498817968,0.046052631578947345
38,536.7218282111899,0.046052631578947345
39,536.7218282111899,0.03947368421052633
40,539.5193065405833,0.03947368421052633
41,539.5193065405833,0.046052631578947345
42,539.5193065405833,0.052631578947368474
43,542.3167848699763,0.05921052631578949
44,542.3167848699763,0.052631578947368474
45,545.1142631993694,0.06578947368421051
46,545.1142631993694,0.05921052631578949
47,547.9117415287628,0.06578947368421051
48,547.9117415287628,0.05921052631578949
49,550.7092198581558,0.05921052631578949
50,550.7092198581558,0.06578947368421051
51,553.5066981875493,0.05921052631578949
52,553.5066981875493,0.06578947368421051
53,556.3041765169423,0.052631578947368474
54,556.3041765169423,0.05921052631578949
55,559.1016548463358,0.052631578947368474
56,559.1016548463358,0.046052631578947345
57,561.8991331757288,0.046052631578947345
58,564.6966115051223,0.03947368421052633
59,564.6966115051223,0.03289473684210531
60,564.6966115051223,0.046052631578947345
61,567.4940898345153,0.02631578947368418
62,567.4940898345153,0.03289473684210531
63,570.2915681639088,0.02631578947368418
64,573.0890464933018,0.019736842105263164
65,573.0890464933018,0.02631578947368418
66,575.8865248226948,0.02631578947368418
67,575.8865248226948,0.019736842105263164
68,578.6840031520883,0.019736842105263164
69,581.4814814814813,0.019736842105263164
70,584.2789598108748,0.019736842105263164
71,584.2789598108748,0.02631578947368418
72,587.0764381402678,0.02631578947368418
73,589.8739164696613,0.02631578947368418
74,592.6713947990543,0.02631578947368418
75,595.4688731284477,0.03289473684210531
76,595.4688731284477,0.03947368421052633
77,595.4688731284477,0.02631578947368418
78,598.2663514578408,0.03947368421052633
79,598.2663514578408,0.03289473684210531
80,601.0638297872342,0.03947368421052633
81,601.0638297872342,0.046052631578947345
82,601.0638297872342,0.03289473684210531
83,603.8613081166272,0.03947368421052633
84,603.8613081166272,0.046052631578947345
85,606.6587864460207,0.046052631578947345
86,609.4562647754137,0.046052631578947345
87,609.4562647754137,0.03947368421052633
88,612.2537431048067,0.03947368421052633
89,615.0512214342002,0.03947368421052633
90,617.8486997635932,0.03947368421052633
91,617.8486997635932,0.046052631578947345
92,620.6461780929867,0.046052631578947345
93,623.4436564223797,0.046052631578947345
94,623.4436564223797,0.052631578947368474
95,626.2411347517732,0.052631578947368474
96,629.0386130811662,0.05921052631578949
97,629.0386130811662,0.052631578947368474
98,631.8360914105597,0.06578947368421051
99,631.8360914105597,0.05921052631578949
100,634.6335697399527,0.07236842105263153
101,634.6335697399527,0.06578947368421051
102,637.4310480693462,0.07236842105263153
103,637.4310480693462,0.06578947368421051
104,640.2285263987392,0.06578947368421051
105,643.0260047281322,0.06578947368421051
106,643.0260047281322,0.05921052631578949
107,645.8234830575257,0.05921052631578949
108,648.6209613869187,0.05921052631578949
109,648.6209613869187,0.052631578947368474
110,651.4184397163122,0.052631578947368474
111,651.4184397163122,0.046052631578947345
112,654.2159180457052,0.046052631578947345
113,657.0133963750986,0.046052631578947345
114,657.0133963750986,0.03947368421052633
115,659.8108747044917,0.03947368421052633
116,662.6083530338851,0.03289473684210531
117,662.6083530338851,0.03947368421052633
118,665.4058313632781,0.03289473684210531
119,668.2033096926716,0.03947368421052633
120,668.2033096926716,0.03289473684210531
121,671.0007880220646,0.03947368421052633
122,671.0007880220646,0.03289473684210531
123,673.7982663514576,0.03289473684210531
124,676.5957446808511,0.03289473684210531
125,679.3932230102441,0.03289473684210531
126,682.1907013396376,0.03289473684210531
127,684.9881796690306,0.03289473684210531
128,687.7856579984241,0.02631578947368418
129,687.7856579984241,0.03289473684210531
130,690.5831363278171,0.03289473684210531
131,693.3806146572106,0.03947368421052633
132,693.3806146572106,0.03289473684210531
133,696.1780929866036,0.03947368421052633
134,696.1780929866036,0.03289473684210531
135,698.9755713159971,0.03289473684210531
136,701.7730496453901,0.03289473684210531
137,704.5705279747831,0.03289473684210531
138,707.3680063041766,0.02631578947368418
139,707.3680063041766,0.03289473684210531
140,710.1654846335696,0.03289473684210531
141,710.1654846335696,0.02631578947368418
142,712.962962962963,0.03947368421052633
143,712.962962962963,0.03289473684210531
144,715.7604412923561,0.03947368421052633
145,715.7604412923561,0.046052631578947345
146,718.5579196217495,0.046052631578947345
147,718.5579196217495,0.052631578947368474
148,721.3553979511425,0.052631578947368474
149,724.152876280536,0.052631578947368474
150,726.950354609929,0.052631578947368474
151,726.950354609929,0.046052631578947345
152,729.7478329393225,0.052631578947368474
153,729.7478329393225,0.046052631578947345
154,732.5453112687155,0.052631578947368474
155,732.5453112687155,0.046052631578947345
156,735.3427895981085,0.046052631578947345
157,735.3427895981085,0.03947368421052633
158,738.140267927502,0.03947368421052633
159,738.140267927502,0.03289473684210531
160,740.937746256895,0.03289473684210531
161,740.937746256895,0.02631578947368418
162,743.7352245862885,0.019736842105263164
163,743.7352245862885,0.02631578947368418
164,746.5327029156815,0.019736842105263164
165,749.330181245075,0.019736842105263164
166,752.127659574468,0.019736842105263164
167,754.9251379038615,0.019736842105263164
168,754.9251379038615,0.02631578947368418
169,757.7226162332545,0.02631578947368418
170,760.520094562648,0.02631578947368418
171,760.520094562648,0.03289473684210531
172,763.317572892041,0.03289473684210531
173,763.317572892041,0.02631578947368418
174,766.115051221434,0.02631578947368418
175,768.9125295508275,0.02631578947368418
176,768.9125295508275,0.019736842105263164
177,771.7100078802205,0.019736842105263164
178,774.507486209614,0.019736842105263164
179,777.304964539007,0.02631578947368418
180,777.304964539007,0.019736842105263164
181,780.1024428684004,0.02631578947368418
182,782.8999211977934,0.03289473684210531
183,782.8999211977934,0.02631578947368418
184,785.6973995271869,0.03289473684210531
185,788.4948778565799,0.03289473684210531
186,788.4948778565799,0.03947368421052633
187,788.4948778565799,0.046052631578947345
188,791.2923561859734,0.046052631578947345
189,794.0898345153664,0.052631578947368474
190,794.0898345153664,0.046052631578947345
191,796.8873128447594,0.046052631578947345
192,796.8873128447594,0.052631578947368474
193,799.6847911741529,0.05921052631578949
194,799.6847911741529,0.052631578947368474
195,802.4822695035459,0.05921052631578949
196,802.4822695035459,0.06578947368421051
197,805.2797478329394,0.07236842105263153
198,805.2797478329394,0.07894736842105265
199,805.2797478329394,0.06578947368421051
200,808.0772261623324,0.08552631578947367
201,808.0772261623324,0.07894736842105265
202,810.8747044917259,0.07894736842105265
203,810.8747044917259,0.08552631578947367
204,813.6721828211189,0.07894736842105265
205,813.6721828211189,0.05921052631578949
206,813.6721828211189,0.06578947368421051
207,813.6721828211189,0.07236842105263153
208,816.4696611505124,0.05921052631578949
209,816.4696611505124,0.052631578947368474
210,816.4696611505124,0.046052631578947345
211,819.2671394799054,0.046052631578947345
212,819.2671394799054,0.03289473684210531
213,819.2671394799054,0.03947368421052633
214,819.2671394799054,0.02631578947368418
215,822.0646178092989,0.02631578947368418
216,822.0646178092989,0.019736842105263164
217,824.8620961386919,0.019736842105263164
218,827.6595744680849,0.019736842105263164
219,830.4570527974784,0.019736842105263164
220,833.2545311268714,0.019736842105263164
221,836.0520094562648,0.02631578947368418
222,836.0520094562648,0.019736842105263164
223,836.0520094562648,0.03289473684210531
224,838.8494877856579,0.046052631578947345
225,838.8494877856579,0.03289473684210531
226,838.8494877856579,0.03947368421052633
227,841.6469661150513,0.06578947368421051
228,841.6469661150513,0.052631578947368474
229,841.6469661150513,0.07236842105263153
230,841.6469661150513,0.08552631578947367
231,841.6469661150513,0.07894736842105265
232,841.6469661150513,0.05921052631578949
233,841.6469661150513,0.046052631578947345
234,844.4444444444443,0.09210526315789469
235,844.4444444444443,0.08552631578947367
236,844.4444444444443,0.11184210526315785
237,844.4444444444443,0.09868421052631582
238,844.4444444444443,0.11842105263157898
239,844.4444444444443,0.10526315789473684
240,847.2419227738378,0.15131578947368418
241,847.2419227738378,0.125
242,847.2419227738378,0.13815789473684215
243,847.2419227738378,0.11842105263157898
244,847.2419227738378,0.13157894736842102
245,847.2419227738378,0.14473684210526316
246,850.0394011032308,0.1578947368421053
247,850.0394011032308,0.16447368421052633
248,850.0394011032308,0.19736842105263153
249,850.0394011032308,0.15131578947368418
250,850.0394011032308,0.1907894736842105
251,850.0394011032308,0.21052631578947367
252,850.0394011032308,0.17105263157894735
253,850.0394011032308,0.20394736842105265
254,850.0394011032308,0.1842105263157895
255,850.0394011032308,0.17763157894736847
256,852.8368794326243,0.22368421052631582
257,852.8368794326243,0.23026315789473684
258,852.8368794326243,0.2171052631578947
259,852.8368794326243,0.21052631578947367
260,855.6343577620173,0.23026315789473684
261,855.6343577620173,0.22368421052631582
262,858.4318360914103,0.22368421052631582
263,858.4318360914103,0.2171052631578947
264,861.2293144208038,0.21052631578947367
265,861.2293144208038,0.1907894736842105
266,861.2293144208038,0.20394736842105265
267,861.2293144208038,0.2171052631578947
268,861.2293144208038,0.19736842105263153
269,864.0267927501968,0.1907894736842105
270,864.0267927501968,0.1842105263157895
271,866.8242710795903,0.1842105263157895
272,866.8242710795903,0.16447368421052633
273,866.8242710795903,0.1578947368421053
274,866.8242710795903,0.17105263157894735
275,866.8242710795903,0.17763157894736847
276,869.6217494089833,0.15131578947368418
277,869.6217494089833,0.13815789473684215
278,869.6217494089833,0.1578947368421053
279,869.6217494089833,0.14473684210526316
280,872.4192277383768,0.13815789473684215
281,872.4192277383768,0.11842105263157898
282,872.4192277383768,0.13157894736842102
283,872.4192277383768,0.125
284,875.2167060677698,0.11842105263157898
285,875.2167060677698,0.10526315789473684
286,875.2167060677698,0.11184210526315785
287,875.2167060677698,0.09210526315789469
288,875.2167060677698,0.09868421052631582
289,878.0141843971633,0.07894736842105265
290,878.0141843971633,0.08552631578947367
291,878.0141843971633,0.09210526315789469
292,880.8116627265563,0.07894736842105265
293,883.6091410559497,0.07894736842105265
294,883.6091410559497,0.08552631578947367
295,886.4066193853428,0.09868421052631582
296,886.4066193853428,0.09210526315789469
297,886.4066193853428,0.08552631578947367
298,889.2040977147362,0.10526315789473684
299,889.2040977147362,0.09868421052631582
300,892.0015760441293,0.10526315789473684
301,894.7990543735223,0.10526315789473684
302,897.5965327029157,0.10526315789473684
303,897.5965327029157,0.09868421052631582
304,900.3940110323088,0.09868421052631582
305,900.3940110323088,0.09210526315789469
306,903.1914893617022,0.09210526315789469
307,905.9889676910952,0.07236842105263153
308,905.9889676910952,0.09210526315789469
309,905.9889676910952,0.07894736842105265
310,905.9889676910952,0.08552631578947367
311,908.7864460204887,0.07236842105263153
312,908.7864460204887,0.05921052631578949
313,908.7864460204887,0.06578947368421051
314,911.5839243498817,0.05921052631578949
315,911.5839243498817,0.052631578947368474
316,911.5839243498817,0.046052631578947345
317,914.3814026792752,0.046052631578947345
318,917.1788810086682,0.046052631578947345
319,917.1788810086682,0.03947368421052633
320,919.9763593380617,0.03947368421052633
321,922.7738376674547,0.03947368421052633
322,922.7738376674547,0.046052631578947345
323,925.5713159968477,0.046052631578947345
324,928.3687943262412,0.046052631578947345
325,931.1662726556342,0.046052631578947345
326,931.1662726556342,0.052631578947368474
327,933.9637509850277,0.052631578947368474
328,936.7612293144207,0.052631578947368474
329,936.7612293144207,0.05921052631578949
330,939.5587076438142,0.046052631578947345
331,939.5587076438142,0.052631578947368474
332,942.3561859732072,0.03947368421052633
333,942.3561859732072,0.046052631578947345
334,942.3561859732072,0.03289473684210531
335,942.3561859732072,0.02631578947368418
336,945.1536643026006,0.02631578947368418
337,947.9511426319937,0.019736842105263164
338,947.9511426319937,0.02631578947368418
339,950.7486209613871,0.019736842105263164
340,953.5460992907801,0.019736842105263164
341,956.3435776201732,0.019736842105263164
342,959.1410559495666,0.019736842105263164
343,961.9385342789597,0.019736842105263164
344,964.7360126083531,0.019736842105263164
345,964.7360126083531,0.02631578947368418
346,967.5334909377461,0.02631578947368418
347,970.3309692671396,0.02631578947368418
348,970.3309692671396,0.019736842105263164
349,973.1284475965326,0.019736842105263164
350,973.1284475965326,0.02631578947368418
351,975.9259259259261,0.02631578947368418
352,978.7234042553191,0.02631578947368418
353,981.5208825847126,0.02631578947368418
354,984.3183609141056,0.02631578947368418
355,987.1158392434986,0.02631578947368418
356,989.9133175728921,0.02631578947368418
357,989.9133175728921,0.03289473684210531
358,992.7107959022851,0.03947368421052633
359,992.7107959022851,0.03289473684210531
360,995.5082742316786,0.03947368421052633
361,998.3057525610716,0.046052631578947345
362,998.3057525610716,0.03947368421052633
363,1001.103230890465,0.052631578947368474
364,1001.103230890465,0.046052631578947345
365,1003.9007092198581,0.05921052631578949
366,1003.9007092198581,0.052631578947368474
367,1003.9007092198581,0.06578947368421051
368,1006.6981875492515,0.07236842105263153
369,1006.6981875492515,0.06578947368421051
370,1009.4956658786446,0.07236842105263153
371,1009.4956658786446,0.07894736842105265
372,1009.4956658786446,0.08552631578947367
373,1012.293144208038,0.08552631578947367
374,1015.090622537431,0.09210526315789469
375,1015.090622537431,0.08552631578947367
376,1017.8881008668241,0.09210526315789469
377,1017.8881008668241,0.09868421052631582
378,1020.6855791962175,0.09868421052631582
379,1023.4830575256105,0.09210526315789469
380,1026.280535855004,0.09210526315789469
381,1029.078014184397,0.08552631578947367
382,1029.078014184397,0.09210526315789469
383,1031.8754925137905,0.09210526315789469
384,1034.6729708431835,0.09868421052631582
385,1034.6729708431835,0.09210526315789469
386,1037.470449172577,0.09868421052631582
387,1037.470449172577,0.10526315789473684
388,1040.26792750197,0.10526315789473684
389,1040.26792750197,0.11184210526315785
390,1043.0654058313635,0.125
391,1043.0654058313635,0.11184210526315785
392,1043.0654058313635,0.11842105263157898
393,1045.8628841607565,0.13157894736842102
394,1045.8628841607565,0.14473684210526316
395,1045.8628841607565,0.13815789473684215
396,1045.8628841607565,0.125
397,1048.6603624901495,0.17763157894736847
398,1048.6603624901495,0.1578947368421053
399,1048.6603624901495,0.15131578947368418
400,1048.6603624901495,0.17105263157894735
401,1048.6603624901495,0.16447368421052633
402,1048.6603624901495,0.14473684210526316
403,1051.457840819543,0.1907894736842105
404,1051.457840819543,0.1842105263157895
405,1051.457840819543,0.19736842105263153
406,1051.457840819543,0.17763157894736847
407,1054.255319148936,0.21052631578947367
408,1054.255319148936,0.22368421052631582
409,1054.255319148936,0.2171052631578947
410,1054.255319148936,0.20394736842105265
411,1054.255319148936,0.23026315789473684
412,1054.255319148936,0.19736842105263153
413,1054.255319148936,0.23684210526315785
414,1057.0527974783295,0.256578947368421
415,1057.0527974783295,0.25
416,1057.0527974783295,0.24342105263157898
417,1057.0527974783295,0.23684210526315785
418,1059.8502758077225,0.2763157894736842
419,1059.8502758077225,0.256578947368421
420,1059.8502758077225,0.26315789473684215
421,1059.8502758077225,0.26973684210526316
422,1062.647754137116,0.2763157894736842
423,1062.647754137116,0.2828947368421053
424,1065.445232466509,0.2894736842105263
425,1065.445232466509,0.2828947368421053
426,1068.2427107959024,0.2894736842105263
427,1068.2427107959024,0.29605263157894735
428,1071.0401891252955,0.3026315789473685
429,1071.0401891252955,0.29605263157894735
430,1073.837667454689,0.3026315789473685
431,1076.635145784082,0.29605263157894735
432,1076.635145784082,0.3026315789473685
433,1079.432624113475,0.29605263157894735
434,1079.432624113475,0.3026315789473685
435,1082.2301024428684,0.3157894736842105
436,1082.2301024428684,0.3026315789473685
437,1082.2301024428684,0.3092105263157895
438,1085.0275807722614,0.3157894736842105
439,1085.0275807722614,0.3223684210526315
440,1085.0275807722614,0.3355263157894737
441,1085.0275807722614,0.32894736842105265
442,1087.825059101655,0.3355263157894737
443,1087.825059101655,0.32894736842105265
444,1090.622537431048,0.29605263157894735
445,1090.622537431048,0.3026315789473685
446,1090.622537431048,0.3092105263157895
447,1090.622537431048,0.3223684210526315
448,1090.622537431048,0.3157894736842105
449,1090.622537431048,0.32894736842105265
450,1093.4200157604414,0.2828947368421053
451,1093.4200157604414,0.29605263157894735
452,1093.4200157604414,0.2763157894736842
453,1093.4200157604414,0.2894736842105263
454,1096.2174940898344,0.26315789473684215
455,1096.2174940898344,0.25
456,1096.2174940898344,0.256578947368421
457,1096.2174940898344,0.24342105263157898
458,1096.2174940898344,0.2763157894736842
459,1096.2174940898344,0.26973684210526316
460,1099.014972419228,0.24342105263157898
461,1099.014972419228,0.23684210526315785
462,1101.812450748621,0.23026315789473684
463,1101.812450748621,0.23684210526315785
464,1104.6099290780144,0.22368421052631582
465,1104.6099290780144,0.23026315789473684
