,wavenumbers,absorbance
0,452.797478329393,0.052631578947368474
1,455.5949566587865,0.052631578947368474
2,458.3924349881795,0.052631578947368474
3,461.189913317573,0.052631578947368474
4,463.987391646966,0.052631578947368474
5,466.78486997635946,0.052631578947368474
6,469.5823483057525,0.052631578947368474
7,472.37982663514595,0.052631578947368474
8,475.17730496453896,0.052631578947368474
9,477.97478329393243,0.052631578947368474
10,480.77226162332545,0.052631578947368474
11,483.56973995271846,0.052631578947368474
12,486.36721828211193,0.052631578947368474
13,489.16469661150495,0.052631578947368474
14,491.9621749408984,0.052631578947368474
15,494.75965327029144,0.052631578947368474
16,497.5571315996849,0.052631578947368474
17,500.3546099290779,0.03947368421052633
18,500.3546099290779,0.046052631578947345
19,500.3546099290779,0.052631578947368474
20,503.1520882584714,0.03289473684210531
21,503.1520882584714,0.03947368421052633
22,505.9495665878644,0.02631578947368418
23,505.9495665878644,0.03289473684210531
24,508.7470449172579,0.02631578947368418
25,508.7470449172579,0.03289473684210531
26,511.5445232466509,0.03289473684210531
27,511.5445232466509,0.03947368421052633
28,514.3420015760439,0.03947368421052633
29,517.1394799054374,0.03947368421052633
30,519.9369582348304,0.03947368421052633
31,519.9369582348304,0.046052631578947345
32,522.7344365642239,0.046052631578947345
33,522.7344365642239,0.052631578947368474
34,525.5319148936169,0.052631578947368474
35,525.5319148936169,0.05921052631578949
36,528.3293932230104,0.06578947368421051
37,528.3293932230104,0.05921052631578949
38,531.1268715524034,0.07236842105263153
39,531.1268715524034,0.06578947368421051
40,533.9243498817968,0.07236842105263153
41,533.9243498817968,0.07894736842105265
42,533.9243498817968,0.08552631578947367
43,536.7218282111899,0.08552631578947367
44,539.5193065405833,0.09210526315789469
45,539.5193065405833,0.08552631578947367
46,542.3167848699763,0.09210526315789469
47,545.1142631993694,0.09210526315789469
48,547.9117415287628,0.09868421052631582
49,547.9117415287628,0.09210526315789469
50,550.7092198581558,0.09868421052631582
51,550.7092198581558,0.10526315789473684
52,553.5066981875493,0.10526315789473684
53,556.3041765169423,0.10526315789473684
54,556.3041765169423,0.11184210526315785
55,556.3041765169423,0.11842105263157898
56,559.1016548463358,0.125
57,559.1016548463358,0.11842105263157898
58,561.8991331757288,0.13815789473684215
59,561.8991331757288,0.125
60,561.8991331757288,0.13157894736842102
61,564.6966115051223,0.14473684210526316
62,564.6966115051223,0.13815789473684215
63,564.6966115051223,0.1578947368421053
64,564.6966115051223,0.16447368421052633
65,564.6966115051223,0.15131578947368418
66,567.4940898345153,0.17105263157894735
67,567.4940898345153,0.16447368421052633
68,567.4940898345153,0.17763157894736847
69,567.4940898345153,0.1842105263157895
70,570.2915681639088,0.1907894736842105
71,570.2915681639088,0.21052631578947367
72,570.2915681639088,0.23026315789473684
73,570.2915681639088,0.2171052631578947
74,570.2915681639088,0.20394736842105265
75,570.2915681639088,0.24342105263157898
76,570.2915681639088,0.22368421052631582
77,570.2915681639088,0.1842105263157895
78,570.2915681639088,0.19736842105263153
79,570.2915681639088,0.23684210526315785
80,573.0890464933018,0.25
81,573.0890464933018,0.24342105263157898
82,573.0890464933018,0.26973684210526316
83,573.0890464933018,0.2828947368421053
84,573.0890464933018,0.2763157894736842
85,573.0890464933018,0.26315789473684215
86,573.0890464933018,0.256578947368421
87,575.8865248226948,0.381578947368421
88,575.8865248226948,0.3486842105263158
89,575.8865248226948,0.375
90,575.8865248226948,0.35526315789473684
91,575.8865248226948,0.32894736842105265
92,575.8865248226948,0.3157894736842105
93,575.8865248226948,0.29605263157894735
94,575.8865248226948,0.3223684210526315
95,575.8865248226948,0.3092105263157895
96,575.8865248226948,0.3355263157894737
97,575.8865248226948,0.2894736842105263
98,575.8865248226948,0.36184210526315785
99,575.8865248226948,0.2828947368421053
100,575.8865248226948,0.368421052631579
101,575.8865248226948,0.3026315789473685
102,575.8865248226948,0.3421052631578947
103,578.6840031520883,0.42105263157894735
104,578.6840031520883,0.39473684210526316
105,578.6840031520883,0.4144736842105263
106,578.6840031520883,0.4013157894736842
107,578.6840031520883,0.381578947368421
108,578.6840031520883,0.4078947368421053
109,578.6840031520883,0.38815789473684215
110,581.4814814814813,0.42105263157894735
111,581.4814814814813,0.4605263157894737
112,581.4814814814813,0.45394736842105265
113,581.4814814814813,0.4276315789473685
114,581.4814814814813,0.4342105263157895
115,581.4814814814813,0.4407894736842105
116,581.4814814814813,0.4473684210526315
117,584.2789598108748,0.4605263157894737
118,587.0764381402678,0.45394736842105265
119,587.0764381402678,0.4605263157894737
120,589.8739164696613,0.4342105263157895
121,589.8739164696613,0.45394736842105265
122,589.8739164696613,0.4473684210526315
123,589.8739164696613,0.4407894736842105
124,589.8739164696613,0.4276315789473685
125,592.6713947990543,0.4276315789473685
126,592.6713947990543,0.4144736842105263
127,592.6713947990543,0.42105263157894735
128,595.4688731284477,0.4013157894736842
129,595.4688731284477,0.4078947368421053
130,595.4688731284477,0.39473684210526316
131,595.4688731284477,0.368421052631579
132,595.4688731284477,0.4144736842105263
133,595.4688731284477,0.38815789473684215
134,595.4688731284477,0.381578947368421
135,595.4688731284477,0.375
136,598.2663514578408,0.3486842105263158
137,598.2663514578408,0.368421052631579
138,598.2663514578408,0.3421052631578947
139,598.2663514578408,0.35526315789473684
140,598.2663514578408,0.36184210526315785
141,598.2663514578408,0.3355263157894737
142,601.0638297872342,0.3157894736842105
143,601.0638297872342,0.3092105263157895
144,601.0638297872342,0.2763157894736842
145,601.0638297872342,0.32894736842105265
146,601.0638297872342,0.29605263157894735
147,601.0638297872342,0.3026315789473685
148,601.0638297872342,0.3223684210526315
149,601.0638297872342,0.2894736842105263
150,601.0638297872342,0.3355263157894737
151,601.0638297872342,0.2828947368421053
152,603.8613081166272,0.2763157894736842
153,603.8613081166272,0.256578947368421
154,603.8613081166272,0.26973684210526316
155,603.8613081166272,0.26315789473684215
156,606.6587864460207,0.26315789473684215
157,606.6587864460207,0.256578947368421
158,609.4562647754137,0.26973684210526316
159,609.4562647754137,0.26315789473684215
160,609.4562647754137,0.2763157894736842
161,609.4562647754137,0.2828947368421053
162,612.2537431048067,0.3026315789473685
163,612.2537431048067,0.3157894736842105
164,612.2537431048067,0.2828947368421053
165,612.2537431048067,0.29605263157894735
166,612.2537431048067,0.3223684210526315
167,612.2537431048067,0.2894736842105263
168,612.2537431048067,0.3092105263157895
169,615.0512214342002,0.3421052631578947
170,615.0512214342002,0.3486842105263158
171,615.0512214342002,0.3355263157894737
172,615.0512214342002,0.3223684210526315
173,615.0512214342002,0.35526315789473684
174,615.0512214342002,0.32894736842105265
175,617.8486997635932,0.35526315789473684
176,617.8486997635932,0.381578947368421
177,617.8486997635932,0.368421052631579
178,617.8486997635932,0.375
179,617.8486997635932,0.36184210526315785
180,620.6461780929867,0.4078947368421053
181,620.6461780929867,0.4144736842105263
182,620.6461780929867,0.42105263157894735
183,620.6461780929867,0.39473684210526316
184,620.6461780929867,0.38815789473684215
185,620.6461780929867,0.381578947368421
186,620.6461780929867,0.4013157894736842
187,620.6461780929867,0.4276315789473685
188,623.4436564223797,0.4276315789473685
189,623.4436564223797,0.4342105263157895
190,626.2411347517732,0.42105263157894735
191,626.2411347517732,0.4342105263157895
192,626.2411347517732,0.4144736842105263
193,626.2411347517732,0.4276315789473685
194,626.2411347517732,0.4078947368421053
195,626.2411347517732,0.4013157894736842
196,629.0386130811662,0.39473684210526316
197,629.0386130811662,0.368421052631579
198,629.0386130811662,0.38815789473684215
199,629.0386130811662,0.4013157894736842
200,629.0386130811662,0.375
201,629.0386130811662,0.381578947368421
202,631.8360914105597,0.3355263157894737
203,631.8360914105597,0.368421052631579
204,631.8360914105597,0.3486842105263158
205,631.8360914105597,0.36184210526315785
206,631.8360914105597,0.3092105263157895
207,631.8360914105597,0.35526315789473684
208,631.8360914105597,0.3157894736842105
209,631.8360914105597,0.3421052631578947
210,631.8360914105597,0.3223684210526315
211,631.8360914105597,0.3026315789473685
212,631.8360914105597,0.32894736842105265
213,634.6335697399527,0.29605263157894735
214,634.6335697399527,0.2894736842105263
215,634.6335697399527,0.2828947368421053
216,634.6335697399527,0.2763157894736842
217,634.6335697399527,0.3026315789473685
218,637.4310480693462,0.24342105263157898
219,637.4310480693462,0.26315789473684215
220,637.4310480693462,0.2763157894736842
221,637.4310480693462,0.25
222,637.4310480693462,0.26973684210526316
223,637.4310480693462,0.256578947368421
224,640.2285263987392,0.23684210526315785
225,640.2285263987392,0.24342105263157898
226,640.2285263987392,0.23026315789473684
227,643.0260047281322,0.19736842105263153
228,643.0260047281322,0.17105263157894735
229,643.0260047281322,0.23026315789473684
230,643.0260047281322,0.17763157894736847
231,643.0260047281322,0.22368421052631582
232,643.0260047281322,0.21052631578947367
233,643.0260047281322,0.1907894736842105
234,643.0260047281322,0.1842105263157895
235,643.0260047281322,0.2171052631578947
236,643.0260047281322,0.20394736842105265
237,645.8234830575257,0.16447368421052633
238,645.8234830575257,0.1578947368421053
239,645.8234830575257,0.17105263157894735
240,645.8234830575257,0.13815789473684215
241,645.8234830575257,0.14473684210526316
242,645.8234830575257,0.15131578947368418
243,648.6209613869187,0.125
244,648.6209613869187,0.11842105263157898
245,648.6209613869187,0.13157894736842102
246,648.6209613869187,0.10526315789473684
247,648.6209613869187,0.13815789473684215
248,648.6209613869187,0.11184210526315785
249,651.4184397163122,0.07894736842105265
250,651.4184397163122,0.09868421052631582
251,651.4184397163122,0.09210526315789469
252,651.4184397163122,0.06578947368421051
253,651.4184397163122,0.07236842105263153
254,651.4184397163122,0.10526315789473684
255,651.4184397163122,0.08552631578947367
256,654.2159180457052,0.06578947368421051
257,654.2159180457052,0.052631578947368474
258,654.2159180457052,0.05921052631578949
259,657.0133963750986,0.03289473684210531
260,657.0133963750986,0.03947368421052633
261,657.0133963750986,0.046052631578947345
262,657.0133963750986,0.052631578947368474
263,659.8108747044917,0.03289473684210531
264,659.8108747044917,0.02631578947368418
265,662.6083530338851,0.019736842105263164
266,662.6083530338851,0.02631578947368418
267,665.4058313632781,0.019736842105263164
268,668.2033096926716,0.019736842105263164
269,671.0007880220646,0.019736842105263164
270,673.7982663514576,0.019736842105263164
271,676.5957446808511,0.019736842105263164
272,679.3932230102441,0.019736842105263164
273,682.1907013396376,0.019736842105263164
274,684.9881796690306,0.019736842105263164
275,687.7856579984241,0.019736842105263164
276,690.5831363278171,0.019736842105263164
277,690.5831363278171,0.02631578947368418
278,693.3806146572106,0.03289473684210531
279,693.3806146572106,0.02631578947368418
280,696.1780929866036,0.03289473684210531
281,698.9755713159971,0.03289473684210531
282,701.7730496453901,0.03289473684210531
283,704.5705279747831,0.03289473684210531
284,707.3680063041766,0.03289473684210531
285,710.1654846335696,0.03947368421052633
286,710.1654846335696,0.03289473684210531
287,712.962962962963,0.03947368421052633
288,712.962962962963,0.046052631578947345
289,715.7604412923561,0.052631578947368474
290,715.7604412923561,0.046052631578947345
291,718.5579196217495,0.07894736842105265
292,718.5579196217495,0.09210526315789469
293,718.5579196217495,0.05921052631578949
294,718.5579196217495,0.07236842105263153
295,718.5579196217495,0.08552631578947367
296,718.5579196217495,0.09868421052631582
297,718.5579196217495,0.052631578947368474
298,718.5579196217495,0.06578947368421051
299,721.3553979511425,0.10526315789473684
300,721.3553979511425,0.11842105263157898
301,721.3553979511425,0.11184210526315785
302,721.3553979511425,0.09868421052631582
303,721.3553979511425,0.125
304,724.152876280536,0.125
305,724.152876280536,0.11184210526315785
306,724.152876280536,0.11842105263157898
307,724.152876280536,0.13157894736842102
308,726.950354609929,0.10526315789473684
309,726.950354609929,0.09868421052631582
310,726.950354609929,0.11184210526315785
311,726.950354609929,0.09210526315789469
312,729.7478329393225,0.08552631578947367
313,729.7478329393225,0.07236842105263153
314,729.7478329393225,0.09210526315789469
315,729.7478329393225,0.07894736842105265
316,732.5453112687155,0.05921052631578949
317,732.5453112687155,0.07236842105263153
318,732.5453112687155,0.06578947368421051
319,735.3427895981085,0.05921052631578949
320,738.140267927502,0.05921052631578949
321,740.937746256895,0.05921052631578949
322,743.7352245862885,0.05921052631578949
323,746.5327029156815,0.05921052631578949
324,746.5327029156815,0.06578947368421051
325,749.330181245075,0.07894736842105265
326,749.330181245075,0.06578947368421051
327,749.330181245075,0.07236842105263153
328,752.127659574468,0.09210526315789469
329,752.127659574468,0.07894736842105265
330,752.127659574468,0.08552631578947367
331,754.9251379038615,0.11184210526315785
332,754.9251379038615,0.09868421052631582
333,754.9251379038615,0.125
334,754.9251379038615,0.10526315789473684
335,754.9251379038615,0.09210526315789469
336,754.9251379038615,0.11842105263157898
337,757.7226162332545,0.13157894736842102
338,757.7226162332545,0.125
339,757.7226162332545,0.13815789473684215
340,757.7226162332545,0.14473684210526316
341,760.520094562648,0.1578947368421053
342,760.520094562648,0.16447368421052633
343,760.520094562648,0.14473684210526316
344,760.520094562648,0.15131578947368418
345,763.317572892041,0.1842105263157895
346,763.317572892041,0.1907894736842105
347,763.317572892041,0.17763157894736847
348,763.317572892041,0.17105263157894735
349,763.317572892041,0.16447368421052633
350,766.115051221434,0.19736842105263153
351,766.115051221434,0.1907894736842105
352,768.9125295508275,0.21052631578947367
353,768.9125295508275,0.19736842105263153
354,768.9125295508275,0.20394736842105265
355,771.7100078802205,0.2171052631578947
356,771.7100078802205,0.21052631578947367
357,771.7100078802205,0.22368421052631582
358,774.507486209614,0.23026315789473684
359,774.507486209614,0.22368421052631582
360,774.507486209614,0.24342105263157898
361,774.507486209614,0.23684210526315785
362,777.304964539007,0.25
363,777.304964539007,0.24342105263157898
364,780.1024428684004,0.25
365,782.8999211977934,0.25
366,785.6973995271869,0.25
367,788.4948778565799,0.25
368,788.4948778565799,0.26973684210526316
369,788.4948778565799,0.256578947368421
370,788.4948778565799,0.26315789473684215
371,791.2923561859734,0.26973684210526316
372,791.2923561859734,0.2894736842105263
373,791.2923561859734,0.2828947368421053
374,791.2923561859734,0.2763157894736842
375,794.0898345153664,0.3026315789473685
376,794.0898345153664,0.3223684210526315
377,794.0898345153664,0.29605263157894735
378,794.0898345153664,0.3092105263157895
379,794.0898345153664,0.3157894736842105
380,794.0898345153664,0.32894736842105265
381,794.0898345153664,0.2894736842105263
382,796.8873128447594,0.35526315789473684
383,796.8873128447594,0.3355263157894737
384,796.8873128447594,0.32894736842105265
385,796.8873128447594,0.3421052631578947
386,796.8873128447594,0.3486842105263158
387,799.6847911741529,0.35526315789473684
388,799.6847911741529,0.39473684210526316
389,799.6847911741529,0.375
390,799.6847911741529,0.38815789473684215
391,799.6847911741529,0.368421052631579
392,799.6847911741529,0.381578947368421
393,799.6847911741529,0.36184210526315785
394,802.4822695035459,0.4078947368421053
395,802.4822695035459,0.4144736842105263
396,802.4822695035459,0.4013157894736842
397,802.4822695035459,0.39473684210526316
398,805.2797478329394,0.42105263157894735
399,805.2797478329394,0.4276315789473685
400,805.2797478329394,0.4144736842105263
401,808.0772261623324,0.4342105263157895
402,808.0772261623324,0.4276315789473685
403,810.8747044917259,0.42105263157894735
404,810.8747044917259,0.4144736842105263
405,810.8747044917259,0.4276315789473685
406,813.6721828211189,0.4013157894736842
407,813.6721828211189,0.4078947368421053
408,813.6721828211189,0.4144736842105263
409,816.4696611505124,0.38815789473684215
410,816.4696611505124,0.4013157894736842
411,816.4696611505124,0.39473684210526316
412,819.2671394799054,0.368421052631579
413,819.2671394799054,0.375
414,819.2671394799054,0.381578947368421
415,819.2671394799054,0.38815789473684215
416,822.0646178092989,0.368421052631579
417,824.8620961386919,0.375
418,824.8620961386919,0.381578947368421
419,824.8620961386919,0.368421052631579
420,827.6595744680849,0.381578947368421
421,827.6595744680849,0.38815789473684215
422,830.4570527974784,0.4078947368421053
423,830.4570527974784,0.38815789473684215
424,830.4570527974784,0.39473684210526316
425,830.4570527974784,0.4013157894736842
426,833.2545311268714,0.4078947368421053
427,836.0520094562648,0.39473684210526316
428,836.0520094562648,0.4013157894736842
429,836.0520094562648,0.4078947368421053
430,838.8494877856579,0.39473684210526316
431,838.8494877856579,0.38815789473684215
432,838.8494877856579,0.381578947368421
433,841.6469661150513,0.368421052631579
434,841.6469661150513,0.381578947368421
435,841.6469661150513,0.375
436,841.6469661150513,0.36184210526315785
437,844.4444444444443,0.36184210526315785
438,844.4444444444443,0.3486842105263158
439,844.4444444444443,0.3421052631578947
440,844.4444444444443,0.35526315789473684
441,847.2419227738378,0.32894736842105265
442,847.2419227738378,0.3421052631578947
443,847.2419227738378,0.3355263157894737
444,850.0394011032308,0.3092105263157895
445,850.0394011032308,0.3157894736842105
446,850.0394011032308,0.29605263157894735
447,850.0394011032308,0.3223684210526315
448,850.0394011032308,0.32894736842105265
449,850.0394011032308,0.3026315789473685
450,852.8368794326243,0.2763157894736842
451,852.8368794326243,0.2894736842105263
452,852.8368794326243,0.2828947368421053
453,852.8368794326243,0.29605263157894735
454,855.6343577620173,0.256578947368421
455,855.6343577620173,0.23026315789473684
456,855.6343577620173,0.24342105263157898
457,855.6343577620173,0.2763157894736842
458,855.6343577620173,0.25
459,855.6343577620173,0.26973684210526316
460,855.6343577620173,0.26315789473684215
461,855.6343577620173,0.23684210526315785
462,858.4318360914103,0.21052631578947367
463,858.4318360914103,0.22368421052631582
464,858.4318360914103,0.2171052631578947
465,858.4318360914103,0.23026315789473684
466,861.2293144208038,0.17105263157894735
467,861.2293144208038,0.16447368421052633
468,861.2293144208038,0.19736842105263153
469,861.2293144208038,0.20394736842105265
470,861.2293144208038,0.21052631578947367
471,861.2293144208038,0.17763157894736847
472,861.2293144208038,0.1578947368421053
473,861.2293144208038,0.1842105263157895
474,861.2293144208038,0.1907894736842105
475,864.0267927501968,0.1578947368421053
476,864.0267927501968,0.15131578947368418
477,864.0267927501968,0.14473684210526316
478,864.0267927501968,0.13815789473684215
