,wavenumbers,absorbance
0,452.797478329393,0.125
1,452.797478329393,0.13157894736842102
2,455.5949566587865,0.13157894736842102
3,458.3924349881795,0.13815789473684215
4,458.3924349881795,0.13157894736842102
5,461.189913317573,0.13815789473684215
6,463.987391646966,0.13815789473684215
7,466.78486997635946,0.13157894736842102
8,466.78486997635946,0.13815789473684215
9,469.5823483057525,0.13157894736842102
10,472.37982663514595,0.13157894736842102
11,475.17730496453896,0.13157894736842102
12,477.97478329393243,0.13157894736842102
13,480.77226162332545,0.13157894736842102
14,483.56973995271846,0.13815789473684215
15,483.56973995271846,0.13157894736842102
16,486.36721828211193,0.13815789473684215
17,489.16469661150495,0.13815789473684215
18,489.16469661150495,0.14473684210526316
19,491.9621749408984,0.14473684210526316
20,494.75965327029144,0.14473684210526316
21,497.5571315996849,0.14473684210526316
22,500.3546099290779,0.13815789473684215
23,500.3546099290779,0.14473684210526316
24,503.1520882584714,0.13815789473684215
25,505.9495665878644,0.13815789473684215
26,508.7470449172579,0.13815789473684215
27,511.5445232466509,0.13815789473684215
28,514.3420015760439,0.13815789473684215
29,517.1394799054374,0.13815789473684215
30,519.9369582348304,0.13815789473684215
31,519.9369582348304,0.14473684210526316
32,522.7344365642239,0.14473684210526316
33,525.5319148936169,0.14473684210526316
34,525.5319148936169,0.15131578947368418
35,525.5319148936169,0.1578947368421053
36,528.3293932230104,0.16447368421052633
37,528.3293932230104,0.1578947368421053
38,531.1268715524034,0.17105263157894735
39,531.1268715524034,0.16447368421052633
40,533.9243498817968,0.17105263157894735
41,533.9243498817968,0.17763157894736847
42,533.9243498817968,0.1907894736842105
43,533.9243498817968,0.1842105263157895
44,536.7218282111899,0.20394736842105265
45,536.7218282111899,0.1907894736842105
46,536.7218282111899,0.19736842105263153
47,539.5193065405833,0.2171052631578947
48,539.5193065405833,0.22368421052631582
49,539.5193065405833,0.23026315789473684
50,539.5193065405833,0.20394736842105265
51,539.5193065405833,0.21052631578947367
52,542.3167848699763,0.23026315789473684
53,542.3167848699763,0.23684210526315785
54,542.3167848699763,0.24342105263157898
55,545.1142631993694,0.256578947368421
56,545.1142631993694,0.25
57,545.1142631993694,0.24342105263157898
58,547.9117415287628,0.256578947368421
59,547.9117415287628,0.26315789473684215
60,550.7092198581558,0.26973684210526316
61,550.7092198581558,0.26315789473684215
62,553.5066981875493,0.26973684210526316
63,553.5066981875493,0.2763157894736842
64,556.3041765169423,0.29605263157894735
65,556.3041765169423,0.2763157894736842
66,556.3041765169423,0.2828947368421053
67,556.3041765169423,0.2894736842105263
68,559.1016548463358,0.3026315789473685
69,559.1016548463358,0.29605263157894735
70,559.1016548463358,0.3092105263157895
71,561.8991331757288,0.3092105263157895
72,561.8991331757288,0.3157894736842105
73,564.6966115051223,0.3223684210526315
74,564.6966115051223,0.3157894736842105
75,567.4940898345153,0.3157894736842105
76,567.4940898345153,0.3092105263157895
77,570.2915681639088,0.3092105263157895
78,570.2915681639088,0.29605263157894735
79,570.2915681639088,0.2763157894736842
80,570.2915681639088,0.26315789473684215
81,570.2915681639088,0.3026315789473685
82,570.2915681639088,0.2828947368421053
83,570.2915681639088,0.26973684210526316
84,570.2915681639088,0.2894736842105263
85,573.0890464933018,0.26315789473684215
86,573.0890464933018,0.23684210526315785
87,573.0890464933018,0.24342105263157898
88,573.0890464933018,0.256578947368421
89,573.0890464933018,0.25
90,575.8865248226948,0.2171052631578947
91,575.8865248226948,0.20394736842105265
92,575.8865248226948,0.23026315789473684
93,575.8865248226948,0.22368421052631582
94,575.8865248226948,0.1842105263157895
95,575.8865248226948,0.1907894736842105
96,575.8865248226948,0.23684210526315785
97,575.8865248226948,0.21052631578947367
98,575.8865248226948,0.19736842105263153
99,578.6840031520883,0.17763157894736847
100,578.6840031520883,0.17105263157894735
101,578.6840031520883,0.1842105263157895
102,581.4814814814813,0.17105263157894735
103,581.4814814814813,0.1578947368421053
104,581.4814814814813,0.16447368421052633
105,584.2789598108748,0.1578947368421053
106,584.2789598108748,0.15131578947368418
107,587.0764381402678,0.14473684210526316
108,587.0764381402678,0.15131578947368418
109,589.8739164696613,0.14473684210526316
110,589.8739164696613,0.13815789473684215
111,592.6713947990543,0.14473684210526316
112,592.6713947990543,0.15131578947368418
113,595.4688731284477,0.1578947368421053
114,595.4688731284477,0.15131578947368418
115,595.4688731284477,0.16447368421052633
116,595.4688731284477,0.1907894736842105
117,595.4688731284477,0.1842105263157895
118,595.4688731284477,0.17105263157894735
119,595.4688731284477,0.17763157894736847
120,598.2663514578408,0.20394736842105265
121,598.2663514578408,0.1907894736842105
122,598.2663514578408,0.21052631578947367
123,598.2663514578408,0.2171052631578947
124,598.2663514578408,0.19736842105263153
125,601.0638297872342,0.25
126,601.0638297872342,0.24342105263157898
127,601.0638297872342,0.2171052631578947
128,601.0638297872342,0.23684210526315785
129,601.0638297872342,0.22368421052631582
130,601.0638297872342,0.23026315789473684
131,603.8613081166272,0.256578947368421
132,603.8613081166272,0.25
133,606.6587864460207,0.256578947368421
134,606.6587864460207,0.26315789473684215
135,609.4562647754137,0.26315789473684215
136,612.2537431048067,0.25
137,612.2537431048067,0.256578947368421
138,612.2537431048067,0.26315789473684215
139,612.2537431048067,0.24342105263157898
140,615.0512214342002,0.23684210526315785
141,615.0512214342002,0.24342105263157898
142,615.0512214342002,0.22368421052631582
143,615.0512214342002,0.23026315789473684
144,617.8486997635932,0.22368421052631582
145,617.8486997635932,0.2171052631578947
146,620.6461780929867,0.25
147,620.6461780929867,0.2828947368421053
148,620.6461780929867,0.23684210526315785
149,620.6461780929867,0.26315789473684215
150,620.6461780929867,0.23026315789473684
151,620.6461780929867,0.2894736842105263
152,620.6461780929867,0.2171052631578947
153,620.6461780929867,0.22368421052631582
154,620.6461780929867,0.24342105263157898
155,620.6461780929867,0.26973684210526316
156,620.6461780929867,0.2763157894736842
157,620.6461780929867,0.256578947368421
158,623.4436564223797,0.3223684210526315
159,623.4436564223797,0.3092105263157895
160,623.4436564223797,0.3157894736842105
161,623.4436564223797,0.29605263157894735
162,623.4436564223797,0.2894736842105263
163,623.4436564223797,0.3026315789473685
164,626.2411347517732,0.32894736842105265
165,626.2411347517732,0.3223684210526315
166,629.0386130811662,0.3092105263157895
167,629.0386130811662,0.3223684210526315
168,629.0386130811662,0.3157894736842105
169,631.8360914105597,0.3092105263157895
170,631.8360914105597,0.3026315789473685
171,631.8360914105597,0.29605263157894735
172,631.8360914105597,0.26973684210526316
173,631.8360914105597,0.2828947368421053
174,631.8360914105597,0.2763157894736842
175,631.8360914105597,0.2894736842105263
176,634.6335697399527,0.26315789473684215
177,634.6335697399527,0.23026315789473684
178,634.6335697399527,0.26973684210526316
179,634.6335697399527,0.23684210526315785
180,634.6335697399527,0.256578947368421
181,634.6335697399527,0.24342105263157898
182,634.6335697399527,0.25
183,637.4310480693462,0.1907894736842105
184,637.4310480693462,0.1842105263157895
185,637.4310480693462,0.23026315789473684
186,637.4310480693462,0.22368421052631582
187,637.4310480693462,0.19736842105263153
188,637.4310480693462,0.20394736842105265
189,637.4310480693462,0.17763157894736847
190,637.4310480693462,0.21052631578947367
191,637.4310480693462,0.2171052631578947
192,640.2285263987392,0.16447368421052633
193,640.2285263987392,0.17105263157894735
194,640.2285263987392,0.1578947368421053
195,640.2285263987392,0.17763157894736847
196,643.0260047281322,0.13157894736842102
197,643.0260047281322,0.13815789473684215
198,643.0260047281322,0.14473684210526316
199,643.0260047281322,0.125
200,643.0260047281322,0.15131578947368418
201,643.0260047281322,0.11842105263157898
202,643.0260047281322,0.1578947368421053
203,645.8234830575257,0.10526315789473684
204,645.8234830575257,0.11842105263157898
205,645.8234830575257,0.11184210526315785
206,648.6209613869187,0.10526315789473684
207,648.6209613869187,0.09868421052631582
208,648.6209613869187,0.09210526315789469
209,651.4184397163122,0.09210526315789469
210,651.4184397163122,0.08552631578947367
211,654.2159180457052,0.07894736842105265
212,654.2159180457052,0.08552631578947367
213,657.0133963750986,0.07894736842105265
214,659.8108747044917,0.08552631578947367
215,659.8108747044917,0.07894736842105265
216,662.6083530338851,0.08552631578947367
217,662.6083530338851,0.09210526315789469
218,665.4058313632781,0.09868421052631582
219,665.4058313632781,0.09210526315789469
220,668.2033096926716,0.10526315789473684
221,668.2033096926716,0.13157894736842102
222,668.2033096926716,0.125
223,668.2033096926716,0.11184210526315785
224,668.2033096926716,0.09868421052631582
225,668.2033096926716,0.11842105263157898
226,671.0007880220646,0.13157894736842102
227,671.0007880220646,0.14473684210526316
228,671.0007880220646,0.13815789473684215
229,673.7982663514576,0.15131578947368418
230,673.7982663514576,0.14473684210526316
231,673.7982663514576,0.1578947368421053
232,676.5957446808511,0.17105263157894735
233,676.5957446808511,0.1578947368421053
234,676.5957446808511,0.16447368421052633
235,676.5957446808511,0.1842105263157895
236,676.5957446808511,0.17763157894736847
237,679.3932230102441,0.19736842105263153
238,679.3932230102441,0.1842105263157895
239,679.3932230102441,0.20394736842105265
240,679.3932230102441,0.1907894736842105
241,682.1907013396376,0.24342105263157898
242,682.1907013396376,0.3026315789473685
243,682.1907013396376,0.2894736842105263
244,682.1907013396376,0.26973684210526316
245,682.1907013396376,0.2171052631578947
246,682.1907013396376,0.2763157894736842
247,682.1907013396376,0.22368421052631582
248,682.1907013396376,0.20394736842105265
249,682.1907013396376,0.26315789473684215
250,682.1907013396376,0.2828947368421053
251,682.1907013396376,0.23026315789473684
252,682.1907013396376,0.25
253,682.1907013396376,0.23684210526315785
254,682.1907013396376,0.21052631578947367
255,682.1907013396376,0.256578947368421
256,682.1907013396376,0.29605263157894735
257,682.1907013396376,0.3092105263157895
258,684.9881796690306,0.3421052631578947
259,684.9881796690306,0.32894736842105265
260,684.9881796690306,0.381578947368421
261,684.9881796690306,0.3092105263157895
262,684.9881796690306,0.3157894736842105
263,684.9881796690306,0.3223684210526315
264,684.9881796690306,0.375
265,684.9881796690306,0.35526315789473684
266,684.9881796690306,0.3486842105263158
267,684.9881796690306,0.368421052631579
268,684.9881796690306,0.38815789473684215
269,684.9881796690306,0.36184210526315785
270,684.9881796690306,0.3355263157894737
271,687.7856579984241,0.39473684210526316
272,687.7856579984241,0.4342105263157895
273,687.7856579984241,0.4078947368421053
274,687.7856579984241,0.4144736842105263
275,687.7856579984241,0.42105263157894735
276,687.7856579984241,0.4276315789473685
277,687.7856579984241,0.38815789473684215
278,687.7856579984241,0.4013157894736842
279,690.5831363278171,0.38815789473684215
280,690.5831363278171,0.381578947368421
281,690.5831363278171,0.375
282,690.5831363278171,0.368421052631579
283,690.5831363278171,0.39473684210526316
284,690.5831363278171,0.4013157894736842
285,690.5831363278171,0.4144736842105263
286,690.5831363278171,0.4078947368421053
287,690.5831363278171,0.4276315789473685
288,690.5831363278171,0.42105263157894735
289,693.3806146572106,0.26315789473684215
290,693.3806146572106,0.2828947368421053
291,693.3806146572106,0.23026315789473684
292,693.3806146572106,0.23684210526315785
293,693.3806146572106,0.3421052631578947
294,693.3806146572106,0.3223684210526315
295,693.3806146572106,0.3486842105263158
296,693.3806146572106,0.36184210526315785
297,693.3806146572106,0.256578947368421
298,693.3806146572106,0.26973684210526316
299,693.3806146572106,0.3157894736842105
300,693.3806146572106,0.35526315789473684
301,693.3806146572106,0.29605263157894735
302,693.3806146572106,0.3026315789473685
303,693.3806146572106,0.25
304,693.3806146572106,0.2894736842105263
305,693.3806146572106,0.2171052631578947
306,693.3806146572106,0.22368421052631582
307,693.3806146572106,0.3355263157894737
308,693.3806146572106,0.368421052631579
309,693.3806146572106,0.24342105263157898
310,693.3806146572106,0.32894736842105265
311,693.3806146572106,0.3092105263157895
312,693.3806146572106,0.2763157894736842
313,693.3806146572106,0.21052631578947367
314,696.1780929866036,0.21052631578947367
315,696.1780929866036,0.1907894736842105
316,696.1780929866036,0.17763157894736847
317,696.1780929866036,0.1842105263157895
318,696.1780929866036,0.19736842105263153
319,696.1780929866036,0.17105263157894735
320,696.1780929866036,0.20394736842105265
321,696.1780929866036,0.1578947368421053
322,696.1780929866036,0.16447368421052633
323,698.9755713159971,0.1578947368421053
324,698.9755713159971,0.11842105263157898
325,698.9755713159971,0.14473684210526316
326,698.9755713159971,0.11184210526315785
327,698.9755713159971,0.15131578947368418
328,698.9755713159971,0.125
329,698.9755713159971,0.10526315789473684
330,698.9755713159971,0.13157894736842102
331,698.9755713159971,0.13815789473684215
332,701.7730496453901,0.09868421052631582
333,701.7730496453901,0.10526315789473684
334,704.5705279747831,0.09868421052631582
335,704.5705279747831,0.09210526315789469
336,707.3680063041766,0.09210526315789469
337,710.1654846335696,0.09210526315789469
338,712.962962962963,0.07894736842105265
339,712.962962962963,0.09210526315789469
340,712.962962962963,0.08552631578947367
341,715.7604412923561,0.07894736842105265
342,718.5579196217495,0.07894736842105265
343,721.3553979511425,0.07894736842105265
344,724.152876280536,0.08552631578947367
345,724.152876280536,0.07894736842105265
346,726.950354609929,0.08552631578947367
347,726.950354609929,0.09210526315789469
348,729.7478329393225,0.09868421052631582
349,729.7478329393225,0.09210526315789469
350,729.7478329393225,0.10526315789473684
351,732.5453112687155,0.11842105263157898
352,732.5453112687155,0.10526315789473684
353,732.5453112687155,0.11184210526315785
354,735.3427895981085,0.11184210526315785
355,738.140267927502,0.08552631578947367
356,738.140267927502,0.09210526315789469
357,738.140267927502,0.11184210526315785
358,738.140267927502,0.07894736842105265
359,738.140267927502,0.10526315789473684
360,738.140267927502,0.09868421052631582
361,740.937746256895,0.07236842105263153
362,740.937746256895,0.07894736842105265
363,743.7352245862885,0.07236842105263153
364,743.7352245862885,0.06578947368421051
365,746.5327029156815,0.07236842105263153
366,746.5327029156815,0.06578947368421051
367,749.330181245075,0.07236842105263153
368,752.127659574468,0.07236842105263153
369,754.9251379038615,0.07236842105263153
370,757.7226162332545,0.07236842105263153
371,757.7226162332545,0.06578947368421051
372,760.520094562648,0.06578947368421051
373,763.317572892041,0.05921052631578949
374,763.317572892041,0.06578947368421051
375,766.115051221434,0.05921052631578949
376,766.115051221434,0.052631578947368474
377,768.9125295508275,0.046052631578947345
378,768.9125295508275,0.052631578947368474
379,771.7100078802205,0.046052631578947345
380,774.507486209614,0.046052631578947345
381,777.304964539007,0.046052631578947345
382,780.1024428684004,0.046052631578947345
383,782.8999211977934,0.046052631578947345
384,785.6973995271869,0.046052631578947345
385,788.4948778565799,0.046052631578947345
386,791.2923561859734,0.046052631578947345
387,794.0898345153664,0.046052631578947345
388,794.0898345153664,0.052631578947368474
389,796.8873128447594,0.052631578947368474
390,796.8873128447594,0.05921052631578949
391,799.6847911741529,0.06578947368421051
392,799.6847911741529,0.05921052631578949
393,802.4822695035459,0.06578947368421051
394,805.2797478329394,0.07236842105263153
395,805.2797478329394,0.06578947368421051
396,808.0772261623324,0.07236842105263153
397,808.0772261623324,0.07894736842105265
398,810.8747044917259,0.07894736842105265
399,810.8747044917259,0.09210526315789469
400,810.8747044917259,0.08552631578947367
401,810.8747044917259,0.10526315789473684
402,810.8747044917259,0.09868421052631582
403,813.6721828211189,0.10526315789473684
404,813.6721828211189,0.11184210526315785
405,816.4696611505124,0.11184210526315785
406,816.4696611505124,0.11842105263157898
407,819.2671394799054,0.11842105263157898
408,819.2671394799054,0.125
409,822.0646178092989,0.125
410,822.0646178092989,0.13157894736842102
411,824.8620961386919,0.13157894736842102
412,824.8620961386919,0.13815789473684215
413,824.8620961386919,0.15131578947368418
414,824.8620961386919,0.14473684210526316
415,827.6595744680849,0.1578947368421053
416,827.6595744680849,0.15131578947368418
417,830.4570527974784,0.1578947368421053
418,830.4570527974784,0.15131578947368418
419,833.2545311268714,0.14473684210526316
420,833.2545311268714,0.15131578947368418
421,836.0520094562648,0.14473684210526316
422,836.0520094562648,0.13815789473684215
423,838.8494877856579,0.14473684210526316
424,838.8494877856579,0.13815789473684215
425,841.6469661150513,0.15131578947368418
426,841.6469661150513,0.1578947368421053
427,841.6469661150513,0.14473684210526316
428,844.4444444444443,0.16447368421052633
429,844.4444444444443,0.1578947368421053
430,847.2419227738378,0.16447368421052633
431,850.0394011032308,0.15131578947368418
432,850.0394011032308,0.1578947368421053
433,850.0394011032308,0.16447368421052633
434,852.8368794326243,0.14473684210526316
435,852.8368794326243,0.15131578947368418
436,855.6343577620173,0.11842105263157898
437,855.6343577620173,0.13815789473684215
438,855.6343577620173,0.14473684210526316
439,855.6343577620173,0.13157894736842102
440,855.6343577620173,0.125
441,858.4318360914103,0.11842105263157898
442,858.4318360914103,0.10526315789473684
443,858.4318360914103,0.11184210526315785
444,861.2293144208038,0.10526315789473684
445,861.2293144208038,0.09210526315789469
446,861.2293144208038,0.09868421052631582
447,864.0267927501968,0.09210526315789469
448,864.0267927501968,0.08552631578947367
449,866.8242710795903,0.07894736842105265
450,866.8242710795903,0.08552631578947367
451,869.6217494089833,0.07894736842105265
452,872.4192277383768,0.07894736842105265
453,875.2167060677698,0.07894736842105265
454,878.0141843971633,0.08552631578947367
455,878.0141843971633,0.07894736842105265
456,880.8116627265563,0.08552631578947367
457,883.6091410559497,0.08552631578947367
458,883.6091410559497,0.09210526315789469
459,886.4066193853428,0.09210526315789469
460,889.2040977147362,0.09210526315789469
461,892.0015760441293,0.09210526315789469
462,894.7990543735223,0.09210526315789469
463,897.5965327029157,0.09868421052631582
464,897.5965327029157,0.09210526315789469
465,900.3940110323088,0.09868421052631582
466,903.1914893617022,0.09868421052631582
467,905.9889676910952,0.09868421052631582
468,908.7864460204887,0.09210526315789469
469,908.7864460204887,0.09868421052631582
470,911.5839243498817,0.09210526315789469
471,911.5839243498817,0.08552631578947367
472,914.3814026792752,0.07894736842105265
473,914.3814026792752,0.08552631578947367
474,917.1788810086682,0.07894736842105265
475,917.1788810086682,0.06578947368421051
