,wavenumbers,absorbance
0,452.797478329393,0.02631578947368418
1,455.5949566587865,0.02631578947368418
2,458.3924349881795,0.02631578947368418
3,461.189913317573,0.02631578947368418
4,463.987391646966,0.02631578947368418
5,466.78486997635946,0.02631578947368418
6,469.5823483057525,0.02631578947368418
7,472.37982663514595,0.02631578947368418
8,475.17730496453896,0.02631578947368418
9,477.97478329393243,0.02631578947368418
10,480.77226162332545,0.02631578947368418
11,483.56973995271846,0.02631578947368418
12,486.36721828211193,0.02631578947368418
13,489.16469661150495,0.02631578947368418
14,491.9621749408984,0.02631578947368418
15,494.75965327029144,0.02631578947368418
16,497.5571315996849,0.02631578947368418
17,500.3546099290779,0.02631578947368418
18,500.3546099290779,0.03289473684210531
19,503.1520882584714,0.03289473684210531
20,503.1520882584714,0.03947368421052633
21,505.9495665878644,0.03947368421052633
22,508.7470449172579,0.03947368421052633
23,511.5445232466509,0.03947368421052633
24,514.3420015760439,0.03947368421052633
25,517.1394799054374,0.03947368421052633
26,519.9369582348304,0.046052631578947345
27,519.9369582348304,0.03947368421052633
28,522.7344365642239,0.046052631578947345
29,525.5319148936169,0.046052631578947345
30,525.5319148936169,0.052631578947368474
31,528.3293932230104,0.052631578947368474
32,528.3293932230104,0.05921052631578949
33,531.1268715524034,0.05921052631578949
34,533.9243498817968,0.05921052631578949
35,536.7218282111899,0.05921052631578949
36,536.7218282111899,0.06578947368421051
37,539.5193065405833,0.07236842105263153
38,539.5193065405833,0.06578947368421051
39,542.3167848699763,0.07236842105263153
40,545.1142631993694,0.07236842105263153
41,547.9117415287628,0.07236842105263153
42,547.9117415287628,0.07894736842105265
43,550.7092198581558,0.07894736842105265
44,553.5066981875493,0.07236842105263153
45,553.5066981875493,0.07894736842105265
46,556.3041765169423,0.07236842105263153
47,556.3041765169423,0.06578947368421051
48,559.1016548463358,0.06578947368421051
49,561.8991331757288,0.06578947368421051
50,564.6966115051223,0.05921052631578949
51,564.6966115051223,0.06578947368421051
52,567.4940898345153,0.05921052631578949
53,567.4940898345153,0.052631578947368474
54,570.2915681639088,0.052631578947368474
55,570.2915681639088,0.046052631578947345
56,573.0890464933018,0.046052631578947345
57,575.8865248226948,0.046052631578947345
58,575.8865248226948,0.03947368421052633
59,578.6840031520883,0.03947368421052633
60,581.4814814814813,0.03947368421052633
61,584.2789598108748,0.03947368421052633
62,584.2789598108748,0.03289473684210531
63,587.0764381402678,0.03289473684210531
64,589.8739164696613,0.02631578947368418
65,589.8739164696613,0.03289473684210531
66,592.6713947990543,0.02631578947368418
67,595.4688731284477,0.02631578947368418
68,598.2663514578408,0.019736842105263164
69,598.2663514578408,0.02631578947368418
70,601.0638297872342,0.019736842105263164
71,603.8613081166272,0.019736842105263164
72,606.6587864460207,0.019736842105263164
73,609.4562647754137,0.019736842105263164
74,612.2537431048067,0.019736842105263164
75,615.0512214342002,0.019736842105263164
76,615.0512214342002,0.02631578947368418
77,617.8486997635932,0.02631578947368418
78,620.6461780929867,0.02631578947368418
79,623.4436564223797,0.02631578947368418
80,623.4436564223797,0.019736842105263164
81,626.2411347517732,0.019736842105263164
82,629.0386130811662,0.019736842105263164
83,631.8360914105597,0.019736842105263164
84,634.6335697399527,0.019736842105263164
85,637.4310480693462,0.019736842105263164
86,640.2285263987392,0.019736842105263164
87,643.0260047281322,0.019736842105263164
88,645.8234830575257,0.02631578947368418
89,645.8234830575257,0.019736842105263164
90,648.6209613869187,0.02631578947368418
91,651.4184397163122,0.02631578947368418
92,654.2159180457052,0.03289473684210531
93,654.2159180457052,0.02631578947368418
94,657.0133963750986,0.03947368421052633
95,657.0133963750986,0.03289473684210531
96,657.0133963750986,0.046052631578947345
97,659.8108747044917,0.03947368421052633
98,659.8108747044917,0.046052631578947345
99,662.6083530338851,0.03289473684210531
100,662.6083530338851,0.03947368421052633
101,665.4058313632781,0.03289473684210531
102,668.2033096926716,0.03289473684210531
103,671.0007880220646,0.03289473684210531
104,673.7982663514576,0.03289473684210531
105,676.5957446808511,0.03289473684210531
106,676.5957446808511,0.03947368421052633
107,679.3932230102441,0.03947368421052633
108,682.1907013396376,0.03947368421052633
109,682.1907013396376,0.052631578947368474
110,682.1907013396376,0.05921052631578949
111,682.1907013396376,0.046052631578947345
112,684.9881796690306,0.05921052631578949
113,684.9881796690306,0.06578947368421051
114,684.9881796690306,0.07236842105263153
115,684.9881796690306,0.07894736842105265
116,687.7856579984241,0.14473684210526316
117,687.7856579984241,0.15131578947368418
118,687.7856579984241,0.07894736842105265
119,687.7856579984241,0.17105263157894735
120,687.7856579984241,0.125
121,687.7856579984241,0.08552631578947367
122,687.7856579984241,0.1578947368421053
123,687.7856579984241,0.13157894736842102
124,687.7856579984241,0.10526315789473684
125,687.7856579984241,0.17763157894736847
126,687.7856579984241,0.09210526315789469
127,687.7856579984241,0.09868421052631582
128,687.7856579984241,0.16447368421052633
129,687.7856579984241,0.11842105263157898
130,687.7856579984241,0.13815789473684215
131,687.7856579984241,0.11184210526315785
132,690.5831363278171,0.2894736842105263
133,690.5831363278171,0.20394736842105265
134,690.5831363278171,0.24342105263157898
135,690.5831363278171,0.1842105263157895
136,690.5831363278171,0.26315789473684215
137,690.5831363278171,0.17763157894736847
138,690.5831363278171,0.3026315789473685
139,690.5831363278171,0.29605263157894735
140,690.5831363278171,0.1907894736842105
141,690.5831363278171,0.21052631578947367
142,690.5831363278171,0.19736842105263153
143,690.5831363278171,0.2171052631578947
144,690.5831363278171,0.256578947368421
145,690.5831363278171,0.3157894736842105
146,690.5831363278171,0.3092105263157895
147,690.5831363278171,0.2763157894736842
148,690.5831363278171,0.26973684210526316
149,690.5831363278171,0.23684210526315785
150,690.5831363278171,0.2828947368421053
151,690.5831363278171,0.22368421052631582
152,690.5831363278171,0.23026315789473684
153,690.5831363278171,0.3223684210526315
154,690.5831363278171,0.25
155,693.3806146572106,0.3355263157894737
156,693.3806146572106,0.368421052631579
157,693.3806146572106,0.5855263157894737
158,693.3806146572106,0.513157894736842
159,693.3806146572106,0.5263157894736843
160,693.3806146572106,0.32894736842105265
161,693.3806146572106,0.5197368421052632
162,693.3806146572106,0.39473684210526316
163,693.3806146572106,0.493421052631579
164,693.3806146572106,0.5394736842105263
165,693.3806146572106,0.38815789473684215
166,693.3806146572106,0.381578947368421
167,693.3806146572106,0.3223684210526315
168,693.3806146572106,0.5789473684210527
169,693.3806146572106,0.3421052631578947
170,693.3806146572106,0.3486842105263158
171,693.3806146572106,0.5328947368421053
172,693.3806146572106,0.5592105263157895
173,693.3806146572106,0.506578947368421
174,693.3806146572106,0.5
175,693.3806146572106,0.375
176,693.3806146572106,0.5723684210526316
177,693.3806146572106,0.5657894736842105
178,693.3806146572106,0.36184210526315785
179,693.3806146572106,0.5526315789473684
180,693.3806146572106,0.5460526315789473
181,693.3806146572106,0.35526315789473684
182,693.3806146572106,0.6447368421052632
183,693.3806146572106,0.6644736842105263
184,693.3806146572106,0.6578947368421053
185,693.3806146572106,0.6710526315789473
186,693.3806146572106,0.625
187,693.3806146572106,0.618421052631579
188,693.3806146572106,0.4078947368421053
189,693.3806146572106,0.6776315789473684
190,693.3806146572106,0.611842105263158
191,693.3806146572106,0.5921052631578947
192,693.3806146572106,0.42105263157894735
193,693.3806146572106,0.6052631578947368
194,693.3806146572106,0.4736842105263158
195,693.3806146572106,0.631578947368421
196,693.3806146572106,0.4276315789473685
197,693.3806146572106,0.48684210526315785
198,693.3806146572106,0.4144736842105263
199,693.3806146572106,0.4013157894736842
200,693.3806146572106,0.5986842105263157
201,693.3806146572106,0.45394736842105265
202,693.3806146572106,0.4473684210526315
203,693.3806146572106,0.638157894736842
204,693.3806146572106,0.4407894736842105
205,693.3806146572106,0.4605263157894737
206,693.3806146572106,0.4342105263157895
207,693.3806146572106,0.6513157894736843
208,693.3806146572106,0.4671052631578947
209,693.3806146572106,0.48026315789473684
210,696.1780929866036,0.6776315789473684
211,698.9755713159971,0.6513157894736843
212,698.9755713159971,0.5526315789473684
213,698.9755713159971,0.4736842105263158
214,698.9755713159971,0.5921052631578947
215,698.9755713159971,0.6644736842105263
216,698.9755713159971,0.6710526315789473
217,698.9755713159971,0.6447368421052632
218,698.9755713159971,0.6776315789473684
219,698.9755713159971,0.513157894736842
220,698.9755713159971,0.5394736842105263
221,698.9755713159971,0.4671052631578947
222,698.9755713159971,0.5328947368421053
223,698.9755713159971,0.5263157894736843
224,698.9755713159971,0.5197368421052632
225,698.9755713159971,0.6578947368421053
226,698.9755713159971,0.5460526315789473
227,698.9755713159971,0.618421052631579
228,698.9755713159971,0.493421052631579
229,698.9755713159971,0.6052631578947368
230,698.9755713159971,0.5855263157894737
231,698.9755713159971,0.611842105263158
232,698.9755713159971,0.5723684210526316
233,698.9755713159971,0.5986842105263157
234,698.9755713159971,0.5
235,698.9755713159971,0.48026315789473684
236,698.9755713159971,0.5789473684210527
237,698.9755713159971,0.5657894736842105
238,698.9755713159971,0.506578947368421
239,698.9755713159971,0.631578947368421
240,698.9755713159971,0.5592105263157895
241,698.9755713159971,0.638157894736842
242,698.9755713159971,0.48684210526315785
243,698.9755713159971,0.625
244,701.7730496453901,0.4342105263157895
245,701.7730496453901,0.4671052631578947
246,701.7730496453901,0.381578947368421
247,701.7730496453901,0.38815789473684215
248,701.7730496453901,0.4605263157894737
249,701.7730496453901,0.4013157894736842
250,701.7730496453901,0.3355263157894737
251,701.7730496453901,0.368421052631579
252,701.7730496453901,0.3486842105263158
253,701.7730496453901,0.4276315789473685
254,701.7730496453901,0.4407894736842105
255,701.7730496453901,0.3421052631578947
256,701.7730496453901,0.4473684210526315
257,701.7730496453901,0.375
258,701.7730496453901,0.45394736842105265
259,701.7730496453901,0.35526315789473684
260,701.7730496453901,0.4144736842105263
261,701.7730496453901,0.39473684210526316
262,701.7730496453901,0.4078947368421053
263,701.7730496453901,0.42105263157894735
264,701.7730496453901,0.36184210526315785
265,704.5705279747831,0.26315789473684215
266,704.5705279747831,0.29605263157894735
267,704.5705279747831,0.256578947368421
268,704.5705279747831,0.26973684210526316
269,704.5705279747831,0.2171052631578947
270,704.5705279747831,0.3157894736842105
271,704.5705279747831,0.3355263157894737
272,704.5705279747831,0.23026315789473684
273,704.5705279747831,0.3092105263157895
274,704.5705279747831,0.2828947368421053
275,704.5705279747831,0.23684210526315785
276,704.5705279747831,0.24342105263157898
277,704.5705279747831,0.2763157894736842
278,704.5705279747831,0.3026315789473685
279,704.5705279747831,0.22368421052631582
280,704.5705279747831,0.3223684210526315
281,704.5705279747831,0.2894736842105263
282,704.5705279747831,0.32894736842105265
283,704.5705279747831,0.25
284,707.3680063041766,0.1842105263157895
285,707.3680063041766,0.09868421052631582
286,707.3680063041766,0.19736842105263153
287,707.3680063041766,0.07894736842105265
288,707.3680063041766,0.17763157894736847
289,707.3680063041766,0.20394736842105265
290,707.3680063041766,0.10526315789473684
291,707.3680063041766,0.21052631578947367
292,707.3680063041766,0.09210526315789469
293,707.3680063041766,0.08552631578947367
294,707.3680063041766,0.14473684210526316
295,707.3680063041766,0.125
296,707.3680063041766,0.16447368421052633
297,707.3680063041766,0.17105263157894735
298,707.3680063041766,0.13157894736842102
299,707.3680063041766,0.1578947368421053
300,707.3680063041766,0.2171052631578947
301,707.3680063041766,0.11842105263157898
302,707.3680063041766,0.1907894736842105
303,707.3680063041766,0.13815789473684215
304,707.3680063041766,0.15131578947368418
305,707.3680063041766,0.11184210526315785
306,710.1654846335696,0.07236842105263153
307,710.1654846335696,0.052631578947368474
308,710.1654846335696,0.07894736842105265
309,710.1654846335696,0.06578947368421051
310,710.1654846335696,0.05921052631578949
311,712.962962962963,0.046052631578947345
312,712.962962962963,0.052631578947368474
313,712.962962962963,0.03947368421052633
314,715.7604412923561,0.03289473684210531
315,715.7604412923561,0.03947368421052633
316,718.5579196217495,0.03289473684210531
317,718.5579196217495,0.03947368421052633
318,721.3553979511425,0.046052631578947345
319,721.3553979511425,0.03947368421052633
320,724.152876280536,0.046052631578947345
321,724.152876280536,0.06578947368421051
322,724.152876280536,0.05921052631578949
323,724.152876280536,0.07236842105263153
324,724.152876280536,0.052631578947368474
325,726.950354609929,0.07894736842105265
326,726.950354609929,0.08552631578947367
327,726.950354609929,0.07236842105263153
328,729.7478329393225,0.09868421052631582
329,729.7478329393225,0.10526315789473684
330,729.7478329393225,0.09210526315789469
331,729.7478329393225,0.08552631578947367
332,732.5453112687155,0.13815789473684215
333,732.5453112687155,0.11184210526315785
334,732.5453112687155,0.125
335,732.5453112687155,0.13157894736842102
336,732.5453112687155,0.10526315789473684
337,732.5453112687155,0.11842105263157898
338,735.3427895981085,0.14473684210526316
339,735.3427895981085,0.13815789473684215
340,738.140267927502,0.14473684210526316
341,738.140267927502,0.15131578947368418
342,740.937746256895,0.15131578947368418
343,740.937746256895,0.1578947368421053
344,740.937746256895,0.16447368421052633
345,743.7352245862885,0.17763157894736847
346,743.7352245862885,0.1907894736842105
347,743.7352245862885,0.16447368421052633
348,743.7352245862885,0.1842105263157895
349,743.7352245862885,0.17105263157894735
350,746.5327029156815,0.20394736842105265
351,746.5327029156815,0.19736842105263153
352,746.5327029156815,0.1907894736842105
353,749.330181245075,0.22368421052631582
354,749.330181245075,0.20394736842105265
355,749.330181245075,0.23026315789473684
356,749.330181245075,0.2171052631578947
357,749.330181245075,0.21052631578947367
358,749.330181245075,0.23684210526315785
359,752.127659574468,0.25
360,752.127659574468,0.24342105263157898
361,752.127659574468,0.23684210526315785
362,752.127659574468,0.256578947368421
363,754.9251379038615,0.256578947368421
364,754.9251379038615,0.2763157894736842
365,754.9251379038615,0.26973684210526316
366,754.9251379038615,0.2828947368421053
367,754.9251379038615,0.26315789473684215
368,757.7226162332545,0.2828947368421053
369,760.520094562648,0.26973684210526316
370,760.520094562648,0.2763157894736842
371,760.520094562648,0.2828947368421053
372,763.317572892041,0.2171052631578947
373,763.317572892041,0.26315789473684215
374,763.317572892041,0.26973684210526316
375,763.317572892041,0.25
376,763.317572892041,0.23684210526315785
377,763.317572892041,0.256578947368421
378,763.317572892041,0.22368421052631582
379,763.317572892041,0.23026315789473684
380,763.317572892041,0.21052631578947367
381,763.317572892041,0.24342105263157898
382,766.115051221434,0.1907894736842105
383,766.115051221434,0.21052631578947367
384,766.115051221434,0.19736842105263153
385,766.115051221434,0.20394736842105265
386,766.115051221434,0.1842105263157895
387,768.9125295508275,0.1842105263157895
388,768.9125295508275,0.17105263157894735
389,768.9125295508275,0.1578947368421053
390,768.9125295508275,0.15131578947368418
391,768.9125295508275,0.13815789473684215
392,768.9125295508275,0.14473684210526316
393,768.9125295508275,0.16447368421052633
394,768.9125295508275,0.17763157894736847
395,771.7100078802205,0.125
396,771.7100078802205,0.13157894736842102
397,771.7100078802205,0.13815789473684215
398,774.507486209614,0.10526315789473684
399,774.507486209614,0.11842105263157898
400,774.507486209614,0.125
401,774.507486209614,0.09868421052631582
402,774.507486209614,0.11184210526315785
403,777.304964539007,0.08552631578947367
404,777.304964539007,0.09868421052631582
405,777.304964539007,0.09210526315789469
406,780.1024428684004,0.07236842105263153
407,780.1024428684004,0.07894736842105265
408,780.1024428684004,0.06578947368421051
409,780.1024428684004,0.08552631578947367
410,782.8999211977934,0.06578947368421051
411,782.8999211977934,0.05921052631578949
412,782.8999211977934,0.052631578947368474
413,785.6973995271869,0.052631578947368474
414,788.4948778565799,0.03947368421052633
415,788.4948778565799,0.046052631578947345
416,788.4948778565799,0.052631578947368474
417,791.2923561859734,0.03947368421052633
418,794.0898345153664,0.03289473684210531
419,794.0898345153664,0.03947368421052633
420,796.8873128447594,0.03289473684210531
421,799.6847911741529,0.03289473684210531
422,799.6847911741529,0.03947368421052633
423,802.4822695035459,0.03947368421052633
424,805.2797478329394,0.03947368421052633
425,808.0772261623324,0.03947368421052633
426,808.0772261623324,0.03289473684210531
427,810.8747044917259,0.03289473684210531
428,813.6721828211189,0.03289473684210531
429,816.4696611505124,0.03289473684210531
430,819.2671394799054,0.03947368421052633
431,819.2671394799054,0.03289473684210531
432,822.0646178092989,0.03947368421052633
433,822.0646178092989,0.046052631578947345
434,824.8620961386919,0.046052631578947345
435,824.8620961386919,0.052631578947368474
436,827.6595744680849,0.052631578947368474
437,827.6595744680849,0.05921052631578949
438,830.4570527974784,0.06578947368421051
439,830.4570527974784,0.09210526315789469
440,830.4570527974784,0.09868421052631582
441,830.4570527974784,0.07894736842105265
442,830.4570527974784,0.08552631578947367
443,830.4570527974784,0.05921052631578949
444,830.4570527974784,0.07236842105263153
445,833.2545311268714,0.13157894736842102
446,833.2545311268714,0.09868421052631582
447,833.2545311268714,0.11842105263157898
448,833.2545311268714,0.10526315789473684
449,833.2545311268714,0.125
450,833.2545311268714,0.11184210526315785
451,836.0520094562648,0.11184210526315785
452,836.0520094562648,0.125
453,836.0520094562648,0.10526315789473684
454,836.0520094562648,0.13157894736842102
455,836.0520094562648,0.09868421052631582
456,836.0520094562648,0.11842105263157898
457,838.8494877856579,0.09868421052631582
458,838.8494877856579,0.09210526315789469
459,841.6469661150513,0.07236842105263153
460,841.6469661150513,0.07894736842105265
461,841.6469661150513,0.09210526315789469
462,841.6469661150513,0.08552631578947367
463,844.4444444444443,0.06578947368421051
464,844.4444444444443,0.07236842105263153
465,847.2419227738378,0.052631578947368474
466,847.2419227738378,0.05921052631578949
467,847.2419227738378,0.06578947368421051
468,850.0394011032308,0.046052631578947345
469,850.0394011032308,0.052631578947368474
470,852.8368794326243,0.046052631578947345
471,852.8368794326243,0.03947368421052633
472,855.6343577620173,0.03947368421052633
473,858.4318360914103,0.03289473684210531
474,858.4318360914103,0.03947368421052633
475,861.2293144208038,0.03289473684210531
