,wavenumbers,absorbance
0,452.797478329393,0.02631578947368418
1,452.797478329393,0.03289473684210531
2,455.5949566587865,0.03289473684210531
3,458.3924349881795,0.02631578947368418
4,458.3924349881795,0.03289473684210531
5,461.189913317573,0.02631578947368418
6,463.987391646966,0.03289473684210531
7,463.987391646966,0.02631578947368418
8,466.78486997635946,0.03289473684210531
9,466.78486997635946,0.02631578947368418
10,469.5823483057525,0.02631578947368418
11,472.37982663514595,0.02631578947368418
12,475.17730496453896,0.02631578947368418
13,477.97478329393243,0.02631578947368418
14,480.77226162332545,0.02631578947368418
15,483.56973995271846,0.02631578947368418
16,486.36721828211193,0.02631578947368418
17,489.16469661150495,0.019736842105263164
18,489.16469661150495,0.02631578947368418
19,491.9621749408984,0.019736842105263164
20,494.75965327029144,0.019736842105263164
21,497.5571315996849,0.019736842105263164
22,500.3546099290779,0.019736842105263164
23,503.1520882584714,0.019736842105263164
24,505.9495665878644,0.019736842105263164
25,508.7470449172579,0.019736842105263164
26,511.5445232466509,0.019736842105263164
27,514.3420015760439,0.019736842105263164
28,517.1394799054374,0.019736842105263164
29,519.9369582348304,0.019736842105263164
30,522.7344365642239,0.019736842105263164
31,525.5319148936169,0.019736842105263164
32,528.3293932230104,0.019736842105263164
33,531.1268715524034,0.019736842105263164
34,533.9243498817968,0.019736842105263164
35,536.7218282111899,0.019736842105263164
36,539.5193065405833,0.019736842105263164
37,542.3167848699763,0.019736842105263164
38,545.1142631993694,0.019736842105263164
39,545.1142631993694,0.02631578947368418
40,547.9117415287628,0.02631578947368418
41,550.7092198581558,0.02631578947368418
42,553.5066981875493,0.02631578947368418
43,556.3041765169423,0.03289473684210531
44,556.3041765169423,0.02631578947368418
45,559.1016548463358,0.03289473684210531
46,561.8991331757288,0.03289473684210531
47,564.6966115051223,0.03289473684210531
48,567.4940898345153,0.03289473684210531
49,570.2915681639088,0.03289473684210531
50,573.0890464933018,0.03289473684210531
51,575.8865248226948,0.03289473684210531
52,578.6840031520883,0.03289473684210531
53,581.4814814814813,0.03289473684210531
54,584.2789598108748,0.03289473684210531
55,587.0764381402678,0.03289473684210531
56,589.8739164696613,0.03289473684210531
57,592.6713947990543,0.03289473684210531
58,595.4688731284477,0.03289473684210531
59,598.2663514578408,0.03289473684210531
60,601.0638297872342,0.03289473684210531
61,603.8613081166272,0.03289473684210531
62,606.6587864460207,0.03289473684210531
63,609.4562647754137,0.03289473684210531
64,612.2537431048067,0.02631578947368418
65,612.2537431048067,0.03289473684210531
66,615.0512214342002,0.02631578947368418
67,617.8486997635932,0.02631578947368418
68,620.6461780929867,0.02631578947368418
69,623.4436564223797,0.02631578947368418
70,626.2411347517732,0.02631578947368418
71,629.0386130811662,0.02631578947368418
72,631.8360914105597,0.02631578947368418
73,634.6335697399527,0.02631578947368418
74,637.4310480693462,0.02631578947368418
75,640.2285263987392,0.02631578947368418
76,643.0260047281322,0.02631578947368418
77,645.8234830575257,0.02631578947368418
78,648.6209613869187,0.02631578947368418
79,651.4184397163122,0.02631578947368418
80,654.2159180457052,0.02631578947368418
81,657.0133963750986,0.02631578947368418
82,659.8108747044917,0.02631578947368418
83,662.6083530338851,0.02631578947368418
84,665.4058313632781,0.02631578947368418
85,668.2033096926716,0.02631578947368418
86,671.0007880220646,0.02631578947368418
87,673.7982663514576,0.02631578947368418
88,676.5957446808511,0.02631578947368418
89,679.3932230102441,0.02631578947368418
90,682.1907013396376,0.02631578947368418
91,684.9881796690306,0.02631578947368418
92,687.7856579984241,0.02631578947368418
93,690.5831363278171,0.02631578947368418
94,693.3806146572106,0.02631578947368418
95,696.1780929866036,0.03289473684210531
96,696.1780929866036,0.02631578947368418
97,698.9755713159971,0.02631578947368418
98,698.9755713159971,0.03289473684210531
99,701.7730496453901,0.02631578947368418
100,704.5705279747831,0.03289473684210531
101,704.5705279747831,0.02631578947368418
102,707.3680063041766,0.03289473684210531
103,710.1654846335696,0.03289473684210531
104,710.1654846335696,0.03947368421052633
105,712.962962962963,0.03947368421052633
106,712.962962962963,0.046052631578947345
107,715.7604412923561,0.052631578947368474
108,715.7604412923561,0.046052631578947345
109,718.5579196217495,0.046052631578947345
110,718.5579196217495,0.052631578947368474
111,721.3553979511425,0.046052631578947345
112,724.152876280536,0.046052631578947345
113,724.152876280536,0.03947368421052633
114,726.950354609929,0.03289473684210531
115,726.950354609929,0.03947368421052633
116,729.7478329393225,0.03289473684210531
117,732.5453112687155,0.02631578947368418
118,732.5453112687155,0.03289473684210531
119,735.3427895981085,0.02631578947368418
120,738.140267927502,0.02631578947368418
121,740.937746256895,0.02631578947368418
122,743.7352245862885,0.02631578947368418
123,746.5327029156815,0.02631578947368418
124,749.330181245075,0.019736842105263164
125,749.330181245075,0.02631578947368418
126,752.127659574468,0.019736842105263164
127,754.9251379038615,0.019736842105263164
128,757.7226162332545,0.019736842105263164
129,760.520094562648,0.019736842105263164
130,763.317572892041,0.019736842105263164
131,766.115051221434,0.019736842105263164
132,768.9125295508275,0.019736842105263164
133,771.7100078802205,0.019736842105263164
134,774.507486209614,0.019736842105263164
135,777.304964539007,0.019736842105263164
136,780.1024428684004,0.019736842105263164
137,782.8999211977934,0.019736842105263164
138,785.6973995271869,0.019736842105263164
139,788.4948778565799,0.019736842105263164
140,791.2923561859734,0.019736842105263164
141,794.0898345153664,0.019736842105263164
142,796.8873128447594,0.019736842105263164
143,799.6847911741529,0.019736842105263164
144,802.4822695035459,0.019736842105263164
145,805.2797478329394,0.019736842105263164
146,808.0772261623324,0.019736842105263164
147,810.8747044917259,0.019736842105263164
148,813.6721828211189,0.019736842105263164
149,813.6721828211189,0.02631578947368418
150,816.4696611505124,0.02631578947368418
151,819.2671394799054,0.02631578947368418
152,819.2671394799054,0.03289473684210531
153,822.0646178092989,0.03289473684210531
154,824.8620961386919,0.03947368421052633
155,824.8620961386919,0.03289473684210531
156,827.6595744680849,0.03947368421052633
157,830.4570527974784,0.03947368421052633
158,833.2545311268714,0.03947368421052633
159,833.2545311268714,0.03289473684210531
160,836.0520094562648,0.03289473684210531
161,838.8494877856579,0.03289473684210531
162,841.6469661150513,0.03289473684210531
163,844.4444444444443,0.03289473684210531
164,847.2419227738378,0.03289473684210531
165,850.0394011032308,0.03289473684210531
166,850.0394011032308,0.02631578947368418
167,852.8368794326243,0.02631578947368418
168,855.6343577620173,0.02631578947368418
169,858.4318360914103,0.02631578947368418
170,861.2293144208038,0.03289473684210531
171,861.2293144208038,0.02631578947368418
172,864.0267927501968,0.03289473684210531
173,866.8242710795903,0.03289473684210531
174,869.6217494089833,0.03289473684210531
175,872.4192277383768,0.03289473684210531
176,875.2167060677698,0.03289473684210531
177,878.0141843971633,0.03289473684210531
178,880.8116627265563,0.03289473684210531
179,883.6091410559497,0.03289473684210531
180,886.4066193853428,0.03289473684210531
181,889.2040977147362,0.03289473684210531
182,892.0015760441293,0.03289473684210531
183,894.7990543735223,0.03289473684210531
184,897.5965327029157,0.03289473684210531
185,900.3940110323088,0.03289473684210531
186,903.1914893617022,0.03289473684210531
187,905.9889676910952,0.03289473684210531
188,905.9889676910952,0.03947368421052633
189,908.7864460204887,0.03947368421052633
190,911.5839243498817,0.03947368421052633
191,914.3814026792752,0.03947368421052633
192,914.3814026792752,0.046052631578947345
193,917.1788810086682,0.046052631578947345
194,919.9763593380617,0.046052631578947345
195,922.7738376674547,0.046052631578947345
196,925.5713159968477,0.046052631578947345
197,928.3687943262412,0.046052631578947345
198,931.1662726556342,0.046052631578947345
199,931.1662726556342,0.052631578947368474
200,933.9637509850277,0.052631578947368474
201,936.7612293144207,0.052631578947368474
202,939.5587076438142,0.052631578947368474
203,942.3561859732072,0.052631578947368474
204,945.1536643026006,0.052631578947368474
205,947.9511426319937,0.05921052631578949
206,947.9511426319937,0.052631578947368474
207,950.7486209613871,0.052631578947368474
208,950.7486209613871,0.05921052631578949
209,953.5460992907801,0.052631578947368474
210,956.3435776201732,0.052631578947368474
211,956.3435776201732,0.046052631578947345
212,959.1410559495666,0.046052631578947345
213,961.9385342789597,0.03947368421052633
214,961.9385342789597,0.046052631578947345
215,964.7360126083531,0.03947368421052633
216,967.5334909377461,0.03947368421052633
217,970.3309692671396,0.03947368421052633
218,973.1284475965326,0.03947368421052633
219,975.9259259259261,0.03947368421052633
220,978.7234042553191,0.03947368421052633
221,981.5208825847126,0.03947368421052633
222,984.3183609141056,0.03947368421052633
223,987.1158392434986,0.03947368421052633
224,989.9133175728921,0.03947368421052633
225,992.7107959022851,0.03947368421052633
226,995.5082742316786,0.03947368421052633
227,998.3057525610716,0.046052631578947345
228,998.3057525610716,0.03947368421052633
229,1001.103230890465,0.046052631578947345
230,1003.9007092198581,0.046052631578947345
231,1003.9007092198581,0.052631578947368474
232,1006.6981875492515,0.052631578947368474
233,1009.4956658786446,0.052631578947368474
234,1012.293144208038,0.052631578947368474
235,1015.090622537431,0.052631578947368474
236,1017.8881008668241,0.052631578947368474
237,1020.6855791962175,0.052631578947368474
238,1020.6855791962175,0.05921052631578949
239,1023.4830575256105,0.05921052631578949
240,1026.280535855004,0.06578947368421051
241,1026.280535855004,0.05921052631578949
242,1029.078014184397,0.06578947368421051
243,1031.8754925137905,0.06578947368421051
244,1034.6729708431835,0.06578947368421051
245,1034.6729708431835,0.07236842105263153
246,1037.470449172577,0.07236842105263153
247,1040.26792750197,0.07894736842105265
248,1040.26792750197,0.07236842105263153
249,1043.0654058313635,0.07894736842105265
250,1045.8628841607565,0.07894736842105265
251,1048.6603624901495,0.07894736842105265
252,1051.457840819543,0.07894736842105265
253,1051.457840819543,0.08552631578947367
254,1054.255319148936,0.08552631578947367
255,1057.0527974783295,0.08552631578947367
256,1057.0527974783295,0.09210526315789469
257,1059.8502758077225,0.09210526315789469
258,1062.647754137116,0.09210526315789469
259,1062.647754137116,0.09868421052631582
260,1065.445232466509,0.10526315789473684
261,1065.445232466509,0.09868421052631582
262,1068.2427107959024,0.10526315789473684
263,1071.0401891252955,0.11184210526315785
264,1071.0401891252955,0.10526315789473684
265,1073.837667454689,0.11184210526315785
266,1076.635145784082,0.11184210526315785
267,1079.432624113475,0.11842105263157898
268,1079.432624113475,0.11184210526315785
269,1082.2301024428684,0.11842105263157898
270,1085.0275807722614,0.125
271,1085.0275807722614,0.11842105263157898
272,1087.825059101655,0.125
273,1087.825059101655,0.13157894736842102
274,1090.622537431048,0.13815789473684215
275,1090.622537431048,0.13157894736842102
276,1093.4200157604414,0.13815789473684215
277,1096.2174940898344,0.14473684210526316
278,1096.2174940898344,0.13815789473684215
279,1099.014972419228,0.14473684210526316
280,1099.014972419228,0.15131578947368418
281,1101.812450748621,0.15131578947368418
282,1104.6099290780144,0.1578947368421053
283,1104.6099290780144,0.15131578947368418
284,1107.4074074074074,0.1578947368421053
285,1110.2048857368004,0.15131578947368418
286,1110.2048857368004,0.1578947368421053
287,1113.0023640661939,0.15131578947368418
288,1115.799842395587,0.15131578947368418
289,1115.799842395587,0.14473684210526316
290,1118.5973207249804,0.13815789473684215
291,1118.5973207249804,0.14473684210526316
292,1121.3947990543734,0.13815789473684215
293,1121.3947990543734,0.13157894736842102
294,1124.1922773837669,0.13157894736842102
295,1124.1922773837669,0.125
296,1126.9897557131599,0.125
297,1126.9897557131599,0.11842105263157898
298,1129.7872340425533,0.11842105263157898
299,1129.7872340425533,0.11184210526315785
300,1132.5847123719464,0.11184210526315785
301,1135.3821907013398,0.11184210526315785
302,1138.1796690307328,0.11184210526315785
303,1140.9771473601263,0.10526315789473684
304,1140.9771473601263,0.11184210526315785
305,1143.7746256895193,0.10526315789473684
306,1146.5721040189123,0.10526315789473684
307,1149.3695823483058,0.09868421052631582
308,1149.3695823483058,0.10526315789473684
309,1152.1670606776988,0.09868421052631582
310,1154.9645390070923,0.09868421052631582
311,1157.7620173364853,0.09868421052631582
312,1157.7620173364853,0.09210526315789469
313,1160.5594956658788,0.09210526315789469
314,1163.3569739952718,0.09210526315789469
315,1166.1544523246653,0.09210526315789469
316,1168.9519306540583,0.09210526315789469
317,1171.7494089834518,0.09210526315789469
318,1174.5468873128448,0.09868421052631582
319,1174.5468873128448,0.09210526315789469
320,1177.3443656422378,0.09210526315789469
321,1177.3443656422378,0.09868421052631582
322,1180.1418439716313,0.09210526315789469
323,1182.9393223010243,0.09210526315789469
324,1185.7368006304177,0.08552631578947367
325,1185.7368006304177,0.09210526315789469
326,1188.5342789598108,0.08552631578947367
327,1191.3317572892042,0.08552631578947367
328,1191.3317572892042,0.07894736842105265
329,1194.1292356185972,0.07894736842105265
330,1196.9267139479907,0.07894736842105265
331,1196.9267139479907,0.07236842105263153
332,1199.7241922773837,0.07236842105263153
333,1202.5216706067772,0.07236842105263153
334,1205.3191489361702,0.07236842105263153
335,1205.3191489361702,0.07894736842105265
336,1208.1166272655632,0.07894736842105265
337,1210.9141055949567,0.07894736842105265
338,1213.7115839243497,0.07894736842105265
339,1216.5090622537432,0.07894736842105265
340,1219.3065405831362,0.07894736842105265
341,1219.3065405831362,0.08552631578947367
342,1222.1040189125297,0.08552631578947367
343,1224.9014972419227,0.08552631578947367
344,1224.9014972419227,0.09210526315789469
345,1227.6989755713162,0.09210526315789469
346,1230.4964539007092,0.09210526315789469
347,1230.4964539007092,0.09868421052631582
348,1233.2939322301027,0.09868421052631582
349,1233.2939322301027,0.10526315789473684
350,1236.0914105594957,0.10526315789473684
351,1238.8888888888887,0.10526315789473684
352,1238.8888888888887,0.11184210526315785
353,1241.6863672182822,0.11184210526315785
354,1241.6863672182822,0.11842105263157898
355,1244.4838455476752,0.11842105263157898
356,1247.2813238770686,0.11842105263157898
357,1247.2813238770686,0.11184210526315785
358,1250.0788022064617,0.10526315789473684
359,1250.0788022064617,0.11184210526315785
360,1252.8762805358551,0.09868421052631582
361,1252.8762805358551,0.10526315789473684
362,1255.6737588652481,0.09868421052631582
363,1255.6737588652481,0.09210526315789469
364,1258.4712371946416,0.08552631578947367
365,1258.4712371946416,0.09210526315789469
366,1261.2687155240346,0.08552631578947367
367,1264.066193853428,0.08552631578947367
368,1266.8636721828211,0.08552631578947367
369,1269.6611505122141,0.08552631578947367
370,1272.4586288416076,0.08552631578947367
371,1275.2561071710006,0.08552631578947367
372,1278.053585500394,0.08552631578947367
373,1278.053585500394,0.09210526315789469
374,1280.851063829787,0.09210526315789469
375,1283.6485421591806,0.09210526315789469
376,1286.4460204885736,0.09210526315789469
377,1289.243498817967,0.09210526315789469
378,1292.04097714736,0.09210526315789469
379,1294.8384554767536,0.08552631578947367
380,1294.8384554767536,0.09210526315789469
381,1297.6359338061466,0.08552631578947367
382,1300.4334121355396,0.08552631578947367
383,1303.230890464933,0.08552631578947367
384,1303.230890464933,0.07894736842105265
385,1306.028368794326,0.07894736842105265
386,1308.8258471237195,0.07894736842105265
387,1308.8258471237195,0.07236842105263153
388,1311.6233254531126,0.07236842105263153
389,1314.420803782506,0.07236842105263153
390,1317.218282111899,0.07236842105263153
391,1320.0157604412925,0.07236842105263153
392,1322.8132387706855,0.07236842105263153
393,1325.610717100079,0.07236842105263153
394,1328.408195429472,0.07236842105263153
395,1331.205673758865,0.07236842105263153
396,1334.0031520882585,0.07894736842105265
397,1334.0031520882585,0.07236842105263153
398,1336.8006304176515,0.07894736842105265
399,1339.598108747045,0.07894736842105265
400,1339.598108747045,0.08552631578947367
401,1339.598108747045,0.09210526315789469
402,1342.395587076438,0.09210526315789469
403,1345.1930654058315,0.09210526315789469
404,1345.1930654058315,0.09868421052631582
405,1347.9905437352245,0.09868421052631582
406,1347.9905437352245,0.10526315789473684
407,1350.788022064618,0.10526315789473684
408,1353.585500394011,0.10526315789473684
409,1356.3829787234044,0.10526315789473684
410,1359.1804570527975,0.11842105263157898
411,1359.1804570527975,0.10526315789473684
412,1359.1804570527975,0.11184210526315785
413,1361.9779353821905,0.11842105263157898
414,1361.9779353821905,0.125
415,1364.775413711584,0.13157894736842102
416,1364.775413711584,0.125
417,1367.572892040977,0.13157894736842102
418,1367.572892040977,0.13815789473684215
419,1367.572892040977,0.14473684210526316
420,1370.3703703703704,0.14473684210526316
421,1370.3703703703704,0.15131578947368418
422,1370.3703703703704,0.1578947368421053
423,1370.3703703703704,0.17763157894736847
424,1370.3703703703704,0.16447368421052633
425,1370.3703703703704,0.17105263157894735
426,1373.1678486997635,0.1842105263157895
427,1373.1678486997635,0.17763157894736847
428,1375.965327029157,0.1842105263157895
429,1375.965327029157,0.1907894736842105
430,1378.76280535855,0.1907894736842105
431,1378.76280535855,0.19736842105263153
432,1381.5602836879434,0.20394736842105265
433,1381.5602836879434,0.21052631578947367
434,1381.5602836879434,0.19736842105263153
435,1384.3577620173364,0.22368421052631582
436,1384.3577620173364,0.2171052631578947
437,1384.3577620173364,0.23684210526315785
438,1384.3577620173364,0.24342105263157898
439,1384.3577620173364,0.21052631578947367
440,1384.3577620173364,0.23026315789473684
441,1387.15524034673,0.24342105263157898
442,1387.15524034673,0.256578947368421
443,1387.15524034673,0.26315789473684215
444,1387.15524034673,0.26973684210526316
445,1387.15524034673,0.25
446,1389.952718676123,0.2894736842105263
447,1389.952718676123,0.3223684210526315
448,1389.952718676123,0.29605263157894735
449,1389.952718676123,0.2828947368421053
450,1389.952718676123,0.3026315789473685
451,1389.952718676123,0.3092105263157895
452,1389.952718676123,0.32894736842105265
453,1389.952718676123,0.2763157894736842
454,1389.952718676123,0.3157894736842105
455,1389.952718676123,0.26973684210526316
456,1392.750197005516,0.32894736842105265
457,1392.750197005516,0.3421052631578947
458,1392.750197005516,0.35526315789473684
459,1392.750197005516,0.3355263157894737
460,1392.750197005516,0.3486842105263158
461,1395.5476753349094,0.36184210526315785
462,1395.5476753349094,0.35526315789473684
463,1395.5476753349094,0.368421052631579
