,wavenumbers,absorbance
0,452.797478329393,0.03947368421052633
1,455.5949566587865,0.03947368421052633
2,455.5949566587865,0.046052631578947345
3,458.3924349881795,0.03947368421052633
4,458.3924349881795,0.046052631578947345
5,461.189913317573,0.03947368421052633
6,463.987391646966,0.03947368421052633
7,466.78486997635946,0.03947368421052633
8,469.5823483057525,0.03947368421052633
9,472.37982663514595,0.03947368421052633
10,475.17730496453896,0.03947368421052633
11,477.97478329393243,0.03289473684210531
12,477.97478329393243,0.03947368421052633
13,480.77226162332545,0.03289473684210531
14,483.56973995271846,0.03289473684210531
15,486.36721828211193,0.03289473684210531
16,489.16469661150495,0.03289473684210531
17,491.9621749408984,0.03289473684210531
18,494.75965327029144,0.03289473684210531
19,497.5571315996849,0.03289473684210531
20,500.3546099290779,0.03289473684210531
21,503.1520882584714,0.03289473684210531
22,505.9495665878644,0.03289473684210531
23,508.7470449172579,0.03289473684210531
24,511.5445232466509,0.03289473684210531
25,514.3420015760439,0.03289473684210531
26,517.1394799054374,0.03289473684210531
27,519.9369582348304,0.03289473684210531
28,522.7344365642239,0.03289473684210531
29,525.5319148936169,0.03289473684210531
30,528.3293932230104,0.03289473684210531
31,531.1268715524034,0.03289473684210531
32,533.9243498817968,0.03289473684210531
33,536.7218282111899,0.03289473684210531
34,539.5193065405833,0.03289473684210531
35,542.3167848699763,0.03289473684210531
36,545.1142631993694,0.03289473684210531
37,547.9117415287628,0.03289473684210531
38,550.7092198581558,0.03289473684210531
39,553.5066981875493,0.03289473684210531
40,556.3041765169423,0.03289473684210531
41,559.1016548463358,0.03289473684210531
42,561.8991331757288,0.03289473684210531
43,564.6966115051223,0.03289473684210531
44,564.6966115051223,0.03947368421052633
45,567.4940898345153,0.03947368421052633
46,570.2915681639088,0.03947368421052633
47,573.0890464933018,0.03947368421052633
48,573.0890464933018,0.046052631578947345
49,575.8865248226948,0.046052631578947345
50,578.6840031520883,0.046052631578947345
51,581.4814814814813,0.046052631578947345
52,584.2789598108748,0.046052631578947345
53,587.0764381402678,0.046052631578947345
54,589.8739164696613,0.046052631578947345
55,592.6713947990543,0.046052631578947345
56,595.4688731284477,0.046052631578947345
57,598.2663514578408,0.046052631578947345
58,601.0638297872342,0.046052631578947345
59,603.8613081166272,0.046052631578947345
60,606.6587864460207,0.046052631578947345
61,606.6587864460207,0.03947368421052633
62,609.4562647754137,0.03947368421052633
63,612.2537431048067,0.03947368421052633
64,615.0512214342002,0.03947368421052633
65,617.8486997635932,0.03947368421052633
66,620.6461780929867,0.03947368421052633
67,623.4436564223797,0.03947368421052633
68,626.2411347517732,0.03947368421052633
69,629.0386130811662,0.03947368421052633
70,631.8360914105597,0.03947368421052633
71,634.6335697399527,0.03947368421052633
72,637.4310480693462,0.03947368421052633
73,640.2285263987392,0.03947368421052633
74,643.0260047281322,0.03947368421052633
75,645.8234830575257,0.03947368421052633
76,648.6209613869187,0.046052631578947345
77,648.6209613869187,0.03947368421052633
78,651.4184397163122,0.046052631578947345
79,654.2159180457052,0.046052631578947345
80,657.0133963750986,0.046052631578947345
81,659.8108747044917,0.046052631578947345
82,659.8108747044917,0.052631578947368474
83,662.6083530338851,0.052631578947368474
84,665.4058313632781,0.05921052631578949
85,665.4058313632781,0.052631578947368474
86,668.2033096926716,0.05921052631578949
87,671.0007880220646,0.05921052631578949
88,671.0007880220646,0.06578947368421051
89,673.7982663514576,0.06578947368421051
90,676.5957446808511,0.07236842105263153
91,676.5957446808511,0.06578947368421051
92,679.3932230102441,0.07236842105263153
93,682.1907013396376,0.07894736842105265
94,682.1907013396376,0.07236842105263153
95,684.9881796690306,0.07894736842105265
96,687.7856579984241,0.07894736842105265
97,690.5831363278171,0.07894736842105265
98,693.3806146572106,0.07894736842105265
99,696.1780929866036,0.07894736842105265
100,698.9755713159971,0.07894736842105265
101,701.7730496453901,0.07894736842105265
102,701.7730496453901,0.07236842105263153
103,704.5705279747831,0.07236842105263153
104,707.3680063041766,0.07894736842105265
105,707.3680063041766,0.07236842105263153
106,710.1654846335696,0.07894736842105265
107,712.962962962963,0.07894736842105265
108,712.962962962963,0.08552631578947367
109,715.7604412923561,0.08552631578947367
110,715.7604412923561,0.09210526315789469
111,718.5579196217495,0.09210526315789469
112,721.3553979511425,0.09210526315789469
113,724.152876280536,0.09210526315789469
114,724.152876280536,0.08552631578947367
115,726.950354609929,0.08552631578947367
116,729.7478329393225,0.07236842105263153
117,729.7478329393225,0.08552631578947367
118,729.7478329393225,0.07894736842105265
119,732.5453112687155,0.07236842105263153
120,732.5453112687155,0.06578947368421051
121,735.3427895981085,0.06578947368421051
122,735.3427895981085,0.05921052631578949
123,738.140267927502,0.052631578947368474
124,738.140267927502,0.05921052631578949
125,740.937746256895,0.052631578947368474
126,743.7352245862885,0.046052631578947345
127,743.7352245862885,0.052631578947368474
128,746.5327029156815,0.046052631578947345
129,749.330181245075,0.046052631578947345
130,752.127659574468,0.046052631578947345
131,754.9251379038615,0.046052631578947345
132,754.9251379038615,0.03947368421052633
133,757.7226162332545,0.03947368421052633
134,760.520094562648,0.03947368421052633
135,763.317572892041,0.03947368421052633
136,766.115051221434,0.03947368421052633
137,768.9125295508275,0.03947368421052633
138,771.7100078802205,0.03289473684210531
139,771.7100078802205,0.03947368421052633
140,774.507486209614,0.03289473684210531
141,777.304964539007,0.03289473684210531
142,780.1024428684004,0.03289473684210531
143,782.8999211977934,0.03289473684210531
144,785.6973995271869,0.03289473684210531
145,788.4948778565799,0.03289473684210531
146,791.2923561859734,0.03289473684210531
147,794.0898345153664,0.03289473684210531
148,796.8873128447594,0.03289473684210531
149,799.6847911741529,0.03289473684210531
150,799.6847911741529,0.02631578947368418
151,802.4822695035459,0.02631578947368418
152,805.2797478329394,0.02631578947368418
153,808.0772261623324,0.02631578947368418
154,810.8747044917259,0.02631578947368418
155,813.6721828211189,0.02631578947368418
156,816.4696611505124,0.02631578947368418
157,819.2671394799054,0.02631578947368418
158,822.0646178092989,0.02631578947368418
159,824.8620961386919,0.02631578947368418
160,827.6595744680849,0.02631578947368418
161,830.4570527974784,0.02631578947368418
162,833.2545311268714,0.02631578947368418
163,836.0520094562648,0.02631578947368418
164,838.8494877856579,0.02631578947368418
165,841.6469661150513,0.03289473684210531
166,841.6469661150513,0.02631578947368418
167,844.4444444444443,0.03289473684210531
168,847.2419227738378,0.03289473684210531
169,850.0394011032308,0.03289473684210531
170,852.8368794326243,0.03289473684210531
171,855.6343577620173,0.03289473684210531
172,858.4318360914103,0.03289473684210531
173,861.2293144208038,0.03289473684210531
174,864.0267927501968,0.03289473684210531
175,866.8242710795903,0.03289473684210531
176,869.6217494089833,0.03289473684210531
177,872.4192277383768,0.03289473684210531
178,875.2167060677698,0.03289473684210531
179,878.0141843971633,0.03289473684210531
180,880.8116627265563,0.03289473684210531
181,883.6091410559497,0.03289473684210531
182,886.4066193853428,0.03289473684210531
183,889.2040977147362,0.03289473684210531
184,892.0015760441293,0.03289473684210531
185,894.7990543735223,0.03289473684210531
186,897.5965327029157,0.03289473684210531
187,900.3940110323088,0.03289473684210531
188,903.1914893617022,0.03289473684210531
189,905.9889676910952,0.03289473684210531
190,908.7864460204887,0.03289473684210531
191,911.5839243498817,0.03289473684210531
192,914.3814026792752,0.03289473684210531
193,917.1788810086682,0.03289473684210531
194,919.9763593380617,0.03289473684210531
195,922.7738376674547,0.03289473684210531
196,925.5713159968477,0.03289473684210531
197,928.3687943262412,0.03289473684210531
198,931.1662726556342,0.03947368421052633
199,931.1662726556342,0.03289473684210531
200,933.9637509850277,0.03947368421052633
201,936.7612293144207,0.03947368421052633
202,939.5587076438142,0.03289473684210531
203,939.5587076438142,0.03947368421052633
204,942.3561859732072,0.03289473684210531
205,945.1536643026006,0.03289473684210531
206,947.9511426319937,0.03289473684210531
207,950.7486209613871,0.03289473684210531
208,953.5460992907801,0.03289473684210531
209,956.3435776201732,0.03289473684210531
210,959.1410559495666,0.03289473684210531
211,961.9385342789597,0.03947368421052633
212,961.9385342789597,0.03289473684210531
213,964.7360126083531,0.03947368421052633
214,967.5334909377461,0.03289473684210531
215,967.5334909377461,0.03947368421052633
216,970.3309692671396,0.03289473684210531
217,973.1284475965326,0.03289473684210531
218,975.9259259259261,0.03289473684210531
219,978.7234042553191,0.03289473684210531
220,981.5208825847126,0.03289473684210531
221,984.3183609141056,0.03289473684210531
222,987.1158392434986,0.03289473684210531
223,989.9133175728921,0.03289473684210531
224,992.7107959022851,0.03289473684210531
225,995.5082742316786,0.03289473684210531
226,998.3057525610716,0.03289473684210531
227,998.3057525610716,0.03947368421052633
228,1001.103230890465,0.03947368421052633
229,1003.9007092198581,0.03947368421052633
230,1006.6981875492515,0.03947368421052633
231,1009.4956658786446,0.03947368421052633
232,1012.293144208038,0.03947368421052633
233,1015.090622537431,0.03947368421052633
234,1017.8881008668241,0.046052631578947345
235,1017.8881008668241,0.03947368421052633
236,1020.6855791962175,0.046052631578947345
237,1023.4830575256105,0.046052631578947345
238,1026.280535855004,0.046052631578947345
239,1029.078014184397,0.046052631578947345
240,1031.8754925137905,0.046052631578947345
241,1034.6729708431835,0.046052631578947345
242,1037.470449172577,0.046052631578947345
243,1040.26792750197,0.046052631578947345
244,1043.0654058313635,0.046052631578947345
245,1045.8628841607565,0.046052631578947345
246,1048.6603624901495,0.046052631578947345
247,1051.457840819543,0.046052631578947345
248,1054.255319148936,0.046052631578947345
249,1057.0527974783295,0.046052631578947345
250,1059.8502758077225,0.046052631578947345
251,1062.647754137116,0.046052631578947345
252,1065.445232466509,0.046052631578947345
253,1068.2427107959024,0.046052631578947345
254,1071.0401891252955,0.046052631578947345
255,1073.837667454689,0.052631578947368474
256,1073.837667454689,0.046052631578947345
257,1076.635145784082,0.046052631578947345
258,1079.432624113475,0.046052631578947345
259,1082.2301024428684,0.046052631578947345
260,1085.0275807722614,0.046052631578947345
261,1085.0275807722614,0.03947368421052633
262,1087.825059101655,0.03947368421052633
263,1090.622537431048,0.03947368421052633
264,1093.4200157604414,0.03947368421052633
265,1096.2174940898344,0.03947368421052633
266,1099.014972419228,0.03947368421052633
267,1101.812450748621,0.046052631578947345
268,1101.812450748621,0.03947368421052633
269,1104.6099290780144,0.046052631578947345
270,1107.4074074074074,0.046052631578947345
271,1110.2048857368004,0.046052631578947345
272,1113.0023640661939,0.052631578947368474
273,1113.0023640661939,0.046052631578947345
274,1115.799842395587,0.052631578947368474
275,1118.5973207249804,0.052631578947368474
276,1121.3947990543734,0.052631578947368474
277,1124.1922773837669,0.052631578947368474
278,1126.9897557131599,0.052631578947368474
279,1129.7872340425533,0.046052631578947345
280,1129.7872340425533,0.052631578947368474
281,1132.5847123719464,0.046052631578947345
282,1135.3821907013398,0.046052631578947345
283,1138.1796690307328,0.046052631578947345
284,1140.9771473601263,0.046052631578947345
285,1143.7746256895193,0.046052631578947345
286,1146.5721040189123,0.046052631578947345
287,1146.5721040189123,0.03947368421052633
288,1149.3695823483058,0.03947368421052633
289,1152.1670606776988,0.03947368421052633
290,1152.1670606776988,0.046052631578947345
291,1154.9645390070923,0.046052631578947345
292,1157.7620173364853,0.046052631578947345
293,1160.5594956658788,0.046052631578947345
294,1163.3569739952718,0.046052631578947345
295,1163.3569739952718,0.052631578947368474
296,1166.1544523246653,0.052631578947368474
297,1168.9519306540583,0.052631578947368474
298,1168.9519306540583,0.05921052631578949
299,1171.7494089834518,0.05921052631578949
300,1171.7494089834518,0.06578947368421051
301,1174.5468873128448,0.07236842105263153
302,1174.5468873128448,0.06578947368421051
303,1177.3443656422378,0.06578947368421051
304,1177.3443656422378,0.07236842105263153
305,1180.1418439716313,0.06578947368421051
306,1182.9393223010243,0.06578947368421051
307,1182.9393223010243,0.05921052631578949
308,1185.7368006304177,0.05921052631578949
309,1188.5342789598108,0.05921052631578949
310,1191.3317572892042,0.05921052631578949
311,1194.1292356185972,0.06578947368421051
312,1194.1292356185972,0.05921052631578949
313,1196.9267139479907,0.06578947368421051
314,1199.7241922773837,0.06578947368421051
315,1202.5216706067772,0.06578947368421051
316,1205.3191489361702,0.06578947368421051
317,1208.1166272655632,0.06578947368421051
318,1210.9141055949567,0.06578947368421051
319,1213.7115839243497,0.06578947368421051
320,1216.5090622537432,0.06578947368421051
321,1219.3065405831362,0.06578947368421051
322,1222.1040189125297,0.07236842105263153
323,1222.1040189125297,0.06578947368421051
324,1224.9014972419227,0.07236842105263153
325,1227.6989755713162,0.07236842105263153
326,1227.6989755713162,0.07894736842105265
327,1230.4964539007092,0.07894736842105265
328,1233.2939322301027,0.07894736842105265
329,1236.0914105594957,0.07894736842105265
330,1236.0914105594957,0.08552631578947367
331,1238.8888888888887,0.08552631578947367
332,1241.6863672182822,0.08552631578947367
333,1241.6863672182822,0.09210526315789469
334,1244.4838455476752,0.09210526315789469
335,1247.2813238770686,0.09210526315789469
336,1250.0788022064617,0.09210526315789469
337,1252.8762805358551,0.09210526315789469
338,1255.6737588652481,0.09210526315789469
339,1258.4712371946416,0.09210526315789469
340,1261.2687155240346,0.09210526315789469
341,1264.066193853428,0.09210526315789469
342,1266.8636721828211,0.09210526315789469
343,1269.6611505122141,0.09210526315789469
344,1272.4586288416076,0.09210526315789469
345,1275.2561071710006,0.09210526315789469
346,1278.053585500394,0.08552631578947367
347,1278.053585500394,0.09210526315789469
348,1280.851063829787,0.08552631578947367
349,1283.6485421591806,0.08552631578947367
350,1286.4460204885736,0.08552631578947367
351,1289.243498817967,0.08552631578947367
352,1289.243498817967,0.07894736842105265
353,1292.04097714736,0.07894736842105265
354,1294.8384554767536,0.07894736842105265
355,1297.6359338061466,0.07894736842105265
356,1300.4334121355396,0.07894736842105265
357,1303.230890464933,0.07894736842105265
358,1306.028368794326,0.07236842105263153
359,1306.028368794326,0.07894736842105265
360,1308.8258471237195,0.07236842105263153
361,1311.6233254531126,0.07236842105263153
362,1314.420803782506,0.07236842105263153
363,1317.218282111899,0.07236842105263153
364,1320.0157604412925,0.07236842105263153
365,1322.8132387706855,0.07236842105263153
366,1325.610717100079,0.07236842105263153
367,1328.408195429472,0.07894736842105265
368,1328.408195429472,0.07236842105263153
369,1331.205673758865,0.07894736842105265
370,1334.0031520882585,0.07894736842105265
371,1336.8006304176515,0.07894736842105265
372,1339.598108747045,0.08552631578947367
373,1339.598108747045,0.07894736842105265
374,1342.395587076438,0.08552631578947367
375,1345.1930654058315,0.09210526315789469
376,1345.1930654058315,0.08552631578947367
377,1347.9905437352245,0.09210526315789469
378,1350.788022064618,0.09210526315789469
379,1353.585500394011,0.09210526315789469
380,1356.3829787234044,0.09210526315789469
381,1356.3829787234044,0.09868421052631582
382,1359.1804570527975,0.09868421052631582
383,1361.9779353821905,0.09868421052631582
384,1361.9779353821905,0.10526315789473684
385,1364.775413711584,0.11184210526315785
386,1364.775413711584,0.10526315789473684
387,1367.572892040977,0.11184210526315785
388,1370.3703703703704,0.11842105263157898
389,1370.3703703703704,0.11184210526315785
390,1373.1678486997635,0.11842105263157898
391,1373.1678486997635,0.11184210526315785
392,1375.965327029157,0.09868421052631582
393,1375.965327029157,0.11184210526315785
394,1375.965327029157,0.09210526315789469
395,1375.965327029157,0.10526315789473684
396,1378.76280535855,0.09210526315789469
397,1378.76280535855,0.08552631578947367
398,1381.5602836879434,0.07894736842105265
399,1381.5602836879434,0.08552631578947367
400,1384.3577620173364,0.07236842105263153
401,1384.3577620173364,0.07894736842105265
402,1387.15524034673,0.06578947368421051
403,1387.15524034673,0.07236842105263153
404,1389.952718676123,0.06578947368421051
405,1392.750197005516,0.06578947368421051
406,1395.5476753349094,0.06578947368421051
407,1398.3451536643024,0.06578947368421051
408,1401.1426319936959,0.06578947368421051
409,1403.940110323089,0.06578947368421051
410,1406.7375886524824,0.06578947368421051
411,1406.7375886524824,0.07236842105263153
412,1409.5350669818754,0.07894736842105265
413,1409.5350669818754,0.07236842105263153
414,1412.3325453112689,0.08552631578947367
415,1412.3325453112689,0.07894736842105265
416,1415.1300236406619,0.09210526315789469
417,1415.1300236406619,0.08552631578947367
418,1417.9275019700553,0.09210526315789469
419,1417.9275019700553,0.09868421052631582
420,1420.7249802994484,0.09868421052631582
421,1423.5224586288418,0.10526315789473684
422,1423.5224586288418,0.09868421052631582
423,1426.3199369582348,0.125
424,1426.3199369582348,0.11184210526315785
425,1426.3199369582348,0.10526315789473684
426,1426.3199369582348,0.11842105263157898
427,1429.1174152876279,0.13157894736842102
428,1429.1174152876279,0.125
429,1431.9148936170213,0.13815789473684215
430,1431.9148936170213,0.13157894736842102
431,1434.7123719464144,0.13815789473684215
432,1437.5098502758078,0.13815789473684215
433,1440.3073286052008,0.13815789473684215
434,1443.1048069345943,0.13815789473684215
435,1445.9022852639873,0.13815789473684215
436,1445.9022852639873,0.15131578947368418
437,1445.9022852639873,0.14473684210526316
438,1448.6997635933808,0.16447368421052633
439,1448.6997635933808,0.15131578947368418
440,1448.6997635933808,0.1578947368421053
441,1451.4972419227738,0.16447368421052633
442,1451.4972419227738,0.17105263157894735
443,1451.4972419227738,0.17763157894736847
444,1451.4972419227738,0.1842105263157895
445,1454.2947202521673,0.1842105263157895
446,1454.2947202521673,0.1907894736842105
447,1457.0921985815603,0.20394736842105265
448,1457.0921985815603,0.19736842105263153
449,1457.0921985815603,0.1907894736842105
450,1459.8896769109533,0.20394736842105265
451,1459.8896769109533,0.2171052631578947
452,1459.8896769109533,0.21052631578947367
453,1462.6871552403468,0.19736842105263153
454,1462.6871552403468,0.1907894736842105
455,1462.6871552403468,0.21052631578947367
456,1462.6871552403468,0.2171052631578947
457,1462.6871552403468,0.20394736842105265
458,1465.4846335697398,0.17105263157894735
459,1465.4846335697398,0.17763157894736847
460,1465.4846335697398,0.1907894736842105
461,1465.4846335697398,0.1842105263157895
