,wavenumbers,absorbance
0,452.797478329393,0.019736842105263164
1,455.5949566587865,0.019736842105263164
2,458.3924349881795,0.019736842105263164
3,461.189913317573,0.019736842105263164
4,463.987391646966,0.019736842105263164
5,466.78486997635946,0.019736842105263164
6,469.5823483057525,0.019736842105263164
7,472.37982663514595,0.019736842105263164
8,475.17730496453896,0.019736842105263164
9,477.97478329393243,0.019736842105263164
10,480.77226162332545,0.019736842105263164
11,483.56973995271846,0.019736842105263164
12,486.36721828211193,0.019736842105263164
13,489.16469661150495,0.019736842105263164
14,491.9621749408984,0.019736842105263164
15,494.75965327029144,0.02631578947368418
16,494.75965327029144,0.019736842105263164
17,497.5571315996849,0.02631578947368418
18,500.3546099290779,0.02631578947368418
19,503.1520882584714,0.02631578947368418
20,505.9495665878644,0.02631578947368418
21,508.7470449172579,0.02631578947368418
22,508.7470449172579,0.019736842105263164
23,511.5445232466509,0.02631578947368418
24,514.3420015760439,0.02631578947368418
25,514.3420015760439,0.03289473684210531
26,517.1394799054374,0.02631578947368418
27,519.9369582348304,0.02631578947368418
28,522.7344365642239,0.02631578947368418
29,525.5319148936169,0.019736842105263164
30,525.5319148936169,0.02631578947368418
31,528.3293932230104,0.019736842105263164
32,531.1268715524034,0.019736842105263164
33,533.9243498817968,0.019736842105263164
34,536.7218282111899,0.019736842105263164
35,539.5193065405833,0.019736842105263164
36,542.3167848699763,0.019736842105263164
37,542.3167848699763,0.02631578947368418
38,545.1142631993694,0.019736842105263164
39,545.1142631993694,0.02631578947368418
40,547.9117415287628,0.019736842105263164
41,550.7092198581558,0.019736842105263164
42,550.7092198581558,0.02631578947368418
43,553.5066981875493,0.02631578947368418
44,556.3041765169423,0.02631578947368418
45,559.1016548463358,0.02631578947368418
46,561.8991331757288,0.02631578947368418
47,564.6966115051223,0.02631578947368418
48,567.4940898345153,0.02631578947368418
49,570.2915681639088,0.02631578947368418
50,573.0890464933018,0.02631578947368418
51,575.8865248226948,0.03289473684210531
52,575.8865248226948,0.02631578947368418
53,578.6840031520883,0.03289473684210531
54,581.4814814814813,0.03289473684210531
55,584.2789598108748,0.03289473684210531
56,587.0764381402678,0.03289473684210531
57,587.0764381402678,0.03947368421052633
58,589.8739164696613,0.03947368421052633
59,589.8739164696613,0.046052631578947345
60,592.6713947990543,0.052631578947368474
61,592.6713947990543,0.05921052631578949
62,592.6713947990543,0.046052631578947345
63,595.4688731284477,0.08552631578947367
64,595.4688731284477,0.07894736842105265
65,595.4688731284477,0.07236842105263153
66,595.4688731284477,0.05921052631578949
67,595.4688731284477,0.06578947368421051
68,598.2663514578408,0.08552631578947367
69,598.2663514578408,0.09210526315789469
70,598.2663514578408,0.09868421052631582
71,601.0638297872342,0.09868421052631582
72,601.0638297872342,0.10526315789473684
73,603.8613081166272,0.09868421052631582
74,603.8613081166272,0.10526315789473684
75,603.8613081166272,0.09210526315789469
76,606.6587864460207,0.07236842105263153
77,606.6587864460207,0.06578947368421051
78,606.6587864460207,0.07894736842105265
79,606.6587864460207,0.09210526315789469
80,606.6587864460207,0.08552631578947367
81,609.4562647754137,0.06578947368421051
82,609.4562647754137,0.05921052631578949
83,612.2537431048067,0.052631578947368474
84,612.2537431048067,0.05921052631578949
85,612.2537431048067,0.046052631578947345
86,615.0512214342002,0.046052631578947345
87,617.8486997635932,0.046052631578947345
88,620.6461780929867,0.052631578947368474
89,620.6461780929867,0.046052631578947345
90,623.4436564223797,0.052631578947368474
91,626.2411347517732,0.052631578947368474
92,629.0386130811662,0.052631578947368474
93,631.8360914105597,0.052631578947368474
94,634.6335697399527,0.046052631578947345
95,634.6335697399527,0.052631578947368474
96,637.4310480693462,0.046052631578947345
97,640.2285263987392,0.046052631578947345
98,643.0260047281322,0.046052631578947345
99,645.8234830575257,0.046052631578947345
100,648.6209613869187,0.046052631578947345
101,648.6209613869187,0.03947368421052633
102,651.4184397163122,0.03947368421052633
103,654.2159180457052,0.03947368421052633
104,657.0133963750986,0.03947368421052633
105,659.8108747044917,0.03947368421052633
106,659.8108747044917,0.03289473684210531
107,662.6083530338851,0.03289473684210531
108,665.4058313632781,0.03289473684210531
109,668.2033096926716,0.03289473684210531
110,668.2033096926716,0.02631578947368418
111,671.0007880220646,0.02631578947368418
112,673.7982663514576,0.02631578947368418
113,676.5957446808511,0.02631578947368418
114,679.3932230102441,0.02631578947368418
115,682.1907013396376,0.02631578947368418
116,684.9881796690306,0.02631578947368418
117,687.7856579984241,0.02631578947368418
118,690.5831363278171,0.02631578947368418
119,693.3806146572106,0.02631578947368418
120,696.1780929866036,0.02631578947368418
121,698.9755713159971,0.02631578947368418
122,701.7730496453901,0.02631578947368418
123,704.5705279747831,0.02631578947368418
124,707.3680063041766,0.02631578947368418
125,710.1654846335696,0.02631578947368418
126,712.962962962963,0.02631578947368418
127,715.7604412923561,0.02631578947368418
128,718.5579196217495,0.02631578947368418
129,721.3553979511425,0.02631578947368418
130,724.152876280536,0.02631578947368418
131,726.950354609929,0.02631578947368418
132,729.7478329393225,0.02631578947368418
133,732.5453112687155,0.03289473684210531
134,732.5453112687155,0.02631578947368418
135,735.3427895981085,0.03289473684210531
136,738.140267927502,0.03289473684210531
137,740.937746256895,0.03289473684210531
138,740.937746256895,0.02631578947368418
139,743.7352245862885,0.03289473684210531
140,743.7352245862885,0.02631578947368418
141,746.5327029156815,0.03289473684210531
142,749.330181245075,0.03289473684210531
143,752.127659574468,0.03289473684210531
144,754.9251379038615,0.03289473684210531
145,757.7226162332545,0.03289473684210531
146,760.520094562648,0.03289473684210531
147,760.520094562648,0.02631578947368418
148,763.317572892041,0.02631578947368418
149,766.115051221434,0.02631578947368418
150,768.9125295508275,0.02631578947368418
151,771.7100078802205,0.02631578947368418
152,774.507486209614,0.02631578947368418
153,777.304964539007,0.02631578947368418
154,780.1024428684004,0.02631578947368418
155,782.8999211977934,0.02631578947368418
156,785.6973995271869,0.03289473684210531
157,785.6973995271869,0.02631578947368418
158,788.4948778565799,0.03947368421052633
159,788.4948778565799,0.03289473684210531
160,791.2923561859734,0.03947368421052633
161,794.0898345153664,0.03947368421052633
162,796.8873128447594,0.03947368421052633
163,799.6847911741529,0.03947368421052633
164,799.6847911741529,0.03289473684210531
165,802.4822695035459,0.03289473684210531
166,805.2797478329394,0.03289473684210531
167,808.0772261623324,0.03289473684210531
168,808.0772261623324,0.02631578947368418
169,810.8747044917259,0.02631578947368418
170,813.6721828211189,0.02631578947368418
171,816.4696611505124,0.02631578947368418
172,819.2671394799054,0.02631578947368418
173,822.0646178092989,0.02631578947368418
174,824.8620961386919,0.02631578947368418
175,827.6595744680849,0.02631578947368418
176,830.4570527974784,0.02631578947368418
177,833.2545311268714,0.02631578947368418
178,836.0520094562648,0.02631578947368418
179,838.8494877856579,0.02631578947368418
180,841.6469661150513,0.02631578947368418
181,844.4444444444443,0.02631578947368418
182,847.2419227738378,0.02631578947368418
183,850.0394011032308,0.019736842105263164
184,850.0394011032308,0.02631578947368418
185,852.8368794326243,0.019736842105263164
186,855.6343577620173,0.019736842105263164
187,858.4318360914103,0.019736842105263164
188,861.2293144208038,0.019736842105263164
189,864.0267927501968,0.019736842105263164
190,866.8242710795903,0.019736842105263164
191,869.6217494089833,0.019736842105263164
192,872.4192277383768,0.019736842105263164
193,875.2167060677698,0.019736842105263164
194,875.2167060677698,0.02631578947368418
195,878.0141843971633,0.02631578947368418
196,880.8116627265563,0.02631578947368418
197,883.6091410559497,0.02631578947368418
198,886.4066193853428,0.02631578947368418
199,889.2040977147362,0.02631578947368418
200,892.0015760441293,0.02631578947368418
201,894.7990543735223,0.02631578947368418
202,894.7990543735223,0.03289473684210531
203,897.5965327029157,0.03289473684210531
204,900.3940110323088,0.03289473684210531
205,903.1914893617022,0.03289473684210531
206,905.9889676910952,0.03947368421052633
207,905.9889676910952,0.03289473684210531
208,908.7864460204887,0.03947368421052633
209,911.5839243498817,0.046052631578947345
210,911.5839243498817,0.03947368421052633
211,914.3814026792752,0.046052631578947345
212,917.1788810086682,0.052631578947368474
213,917.1788810086682,0.046052631578947345
214,919.9763593380617,0.05921052631578949
215,919.9763593380617,0.052631578947368474
216,922.7738376674547,0.07236842105263153
217,922.7738376674547,0.06578947368421051
218,922.7738376674547,0.05921052631578949
219,925.5713159968477,0.07894736842105265
220,925.5713159968477,0.07236842105263153
221,928.3687943262412,0.08552631578947367
222,928.3687943262412,0.07894736842105265
223,931.1662726556342,0.08552631578947367
224,931.1662726556342,0.09868421052631582
225,931.1662726556342,0.10526315789473684
226,931.1662726556342,0.09210526315789469
227,933.9637509850277,0.11184210526315785
228,933.9637509850277,0.10526315789473684
229,933.9637509850277,0.11842105263157898
230,936.7612293144207,0.11842105263157898
231,936.7612293144207,0.13157894736842102
232,936.7612293144207,0.125
233,939.5587076438142,0.13815789473684215
234,939.5587076438142,0.13157894736842102
235,942.3561859732072,0.13815789473684215
236,945.1536643026006,0.13815789473684215
237,945.1536643026006,0.13157894736842102
238,947.9511426319937,0.125
239,947.9511426319937,0.11184210526315785
240,947.9511426319937,0.10526315789473684
241,947.9511426319937,0.11842105263157898
242,947.9511426319937,0.13157894736842102
243,950.7486209613871,0.09868421052631582
244,950.7486209613871,0.10526315789473684
245,953.5460992907801,0.09210526315789469
246,953.5460992907801,0.08552631578947367
247,953.5460992907801,0.09868421052631582
248,956.3435776201732,0.08552631578947367
249,959.1410559495666,0.07894736842105265
250,959.1410559495666,0.08552631578947367
251,961.9385342789597,0.07236842105263153
252,961.9385342789597,0.07894736842105265
253,964.7360126083531,0.07236842105263153
254,964.7360126083531,0.06578947368421051
255,967.5334909377461,0.06578947368421051
256,967.5334909377461,0.05921052631578949
257,970.3309692671396,0.05921052631578949
258,973.1284475965326,0.05921052631578949
259,975.9259259259261,0.05921052631578949
260,978.7234042553191,0.05921052631578949
261,981.5208825847126,0.06578947368421051
262,981.5208825847126,0.05921052631578949
263,984.3183609141056,0.06578947368421051
264,987.1158392434986,0.06578947368421051
265,987.1158392434986,0.07236842105263153
266,989.9133175728921,0.07236842105263153
267,989.9133175728921,0.07894736842105265
268,992.7107959022851,0.08552631578947367
269,992.7107959022851,0.07894736842105265
270,995.5082742316786,0.09210526315789469
271,995.5082742316786,0.08552631578947367
272,998.3057525610716,0.10526315789473684
273,998.3057525610716,0.09210526315789469
274,998.3057525610716,0.09868421052631582
275,1001.103230890465,0.11184210526315785
276,1001.103230890465,0.11842105263157898
277,1001.103230890465,0.10526315789473684
278,1003.9007092198581,0.15131578947368418
279,1003.9007092198581,0.14473684210526316
280,1003.9007092198581,0.13157894736842102
281,1003.9007092198581,0.125
282,1003.9007092198581,0.11842105263157898
283,1003.9007092198581,0.13815789473684215
284,1006.6981875492515,0.15131578947368418
285,1006.6981875492515,0.1578947368421053
286,1006.6981875492515,0.17763157894736847
287,1006.6981875492515,0.16447368421052633
288,1006.6981875492515,0.17105263157894735
289,1009.4956658786446,0.19736842105263153
290,1009.4956658786446,0.20394736842105265
291,1009.4956658786446,0.21052631578947367
292,1009.4956658786446,0.1907894736842105
293,1009.4956658786446,0.2171052631578947
294,1009.4956658786446,0.17763157894736847
295,1009.4956658786446,0.22368421052631582
296,1009.4956658786446,0.1842105263157895
297,1009.4956658786446,0.23026315789473684
298,1009.4956658786446,0.24342105263157898
299,1009.4956658786446,0.23684210526315785
300,1012.293144208038,0.24342105263157898
301,1012.293144208038,0.2763157894736842
302,1012.293144208038,0.26973684210526316
303,1012.293144208038,0.26315789473684215
304,1012.293144208038,0.256578947368421
305,1012.293144208038,0.25
306,1015.090622537431,0.2828947368421053
307,1015.090622537431,0.2763157894736842
308,1015.090622537431,0.3026315789473685
309,1015.090622537431,0.29605263157894735
310,1015.090622537431,0.2894736842105263
311,1017.8881008668241,0.3223684210526315
312,1017.8881008668241,0.3157894736842105
313,1017.8881008668241,0.3092105263157895
314,1017.8881008668241,0.3026315789473685
315,1020.6855791962175,0.3157894736842105
316,1020.6855791962175,0.3223684210526315
317,1020.6855791962175,0.3092105263157895
318,1023.4830575256105,0.3092105263157895
319,1023.4830575256105,0.2894736842105263
320,1023.4830575256105,0.3026315789473685
321,1023.4830575256105,0.2828947368421053
322,1023.4830575256105,0.29605263157894735
323,1023.4830575256105,0.2763157894736842
324,1026.280535855004,0.26315789473684215
325,1026.280535855004,0.26973684210526316
326,1026.280535855004,0.2763157894736842
327,1029.078014184397,0.256578947368421
328,1029.078014184397,0.26315789473684215
329,1029.078014184397,0.25
330,1029.078014184397,0.23684210526315785
331,1029.078014184397,0.24342105263157898
332,1031.8754925137905,0.23026315789473684
333,1031.8754925137905,0.23684210526315785
334,1034.6729708431835,0.23026315789473684
335,1034.6729708431835,0.22368421052631582
336,1037.470449172577,0.2171052631578947
337,1037.470449172577,0.22368421052631582
338,1040.26792750197,0.2171052631578947
339,1043.0654058313635,0.2171052631578947
340,1043.0654058313635,0.21052631578947367
341,1045.8628841607565,0.21052631578947367
342,1045.8628841607565,0.20394736842105265
343,1048.6603624901495,0.1907894736842105
344,1048.6603624901495,0.20394736842105265
345,1048.6603624901495,0.19736842105263153
346,1051.457840819543,0.1907894736842105
347,1051.457840819543,0.1842105263157895
348,1054.255319148936,0.17763157894736847
349,1054.255319148936,0.1842105263157895
350,1057.0527974783295,0.17763157894736847
351,1059.8502758077225,0.17763157894736847
352,1062.647754137116,0.17763157894736847
353,1065.445232466509,0.17763157894736847
354,1068.2427107959024,0.17763157894736847
355,1068.2427107959024,0.17105263157894735
356,1071.0401891252955,0.17105263157894735
357,1073.837667454689,0.17105263157894735
358,1076.635145784082,0.17105263157894735
359,1079.432624113475,0.17105263157894735
360,1082.2301024428684,0.17105263157894735
361,1085.0275807722614,0.17105263157894735
362,1087.825059101655,0.17105263157894735
363,1090.622537431048,0.17105263157894735
364,1093.4200157604414,0.17105263157894735
365,1093.4200157604414,0.17763157894736847
366,1096.2174940898344,0.17763157894736847
367,1099.014972419228,0.17763157894736847
368,1101.812450748621,0.17763157894736847
369,1104.6099290780144,0.1842105263157895
370,1104.6099290780144,0.17763157894736847
371,1107.4074074074074,0.1842105263157895
372,1107.4074074074074,0.1907894736842105
373,1110.2048857368004,0.1907894736842105
374,1110.2048857368004,0.19736842105263153
375,1113.0023640661939,0.19736842105263153
376,1115.799842395587,0.19736842105263153
377,1118.5973207249804,0.19736842105263153
378,1121.3947990543734,0.19736842105263153
379,1124.1922773837669,0.1907894736842105
380,1124.1922773837669,0.19736842105263153
381,1126.9897557131599,0.1842105263157895
382,1126.9897557131599,0.1907894736842105
383,1129.7872340425533,0.1842105263157895
384,1129.7872340425533,0.17105263157894735
385,1129.7872340425533,0.17763157894736847
386,1132.5847123719464,0.1578947368421053
387,1132.5847123719464,0.16447368421052633
388,1132.5847123719464,0.17105263157894735
389,1135.3821907013398,0.1578947368421053
390,1135.3821907013398,0.15131578947368418
391,1135.3821907013398,0.14473684210526316
392,1138.1796690307328,0.13157894736842102
393,1138.1796690307328,0.13815789473684215
394,1138.1796690307328,0.14473684210526316
395,1140.9771473601263,0.11842105263157898
396,1140.9771473601263,0.13157894736842102
397,1140.9771473601263,0.125
398,1143.7746256895193,0.11842105263157898
399,1146.5721040189123,0.11842105263157898
400,1146.5721040189123,0.11184210526315785
401,1149.3695823483058,0.11842105263157898
402,1149.3695823483058,0.11184210526315785
403,1152.1670606776988,0.11842105263157898
404,1152.1670606776988,0.125
405,1152.1670606776988,0.13157894736842102
406,1154.9645390070923,0.13157894736842102
407,1154.9645390070923,0.13815789473684215
408,1157.7620173364853,0.13815789473684215
409,1157.7620173364853,0.14473684210526316
410,1157.7620173364853,0.15131578947368418
411,1160.5594956658788,0.17105263157894735
412,1160.5594956658788,0.1578947368421053
413,1160.5594956658788,0.15131578947368418
414,1160.5594956658788,0.17763157894736847
415,1160.5594956658788,0.16447368421052633
416,1163.3569739952718,0.17763157894736847
417,1163.3569739952718,0.1842105263157895
418,1166.1544523246653,0.1907894736842105
419,1166.1544523246653,0.19736842105263153
420,1166.1544523246653,0.1842105263157895
421,1168.9519306540583,0.19736842105263153
422,1168.9519306540583,0.20394736842105265
423,1171.7494089834518,0.19736842105263153
424,1171.7494089834518,0.1907894736842105
425,1171.7494089834518,0.20394736842105265
426,1174.5468873128448,0.1907894736842105
427,1174.5468873128448,0.1842105263157895
428,1177.3443656422378,0.17105263157894735
429,1177.3443656422378,0.16447368421052633
430,1177.3443656422378,0.1842105263157895
431,1177.3443656422378,0.17763157894736847
432,1180.1418439716313,0.1578947368421053
433,1180.1418439716313,0.16447368421052633
434,1182.9393223010243,0.15131578947368418
435,1182.9393223010243,0.1578947368421053
436,1185.7368006304177,0.14473684210526316
437,1185.7368006304177,0.15131578947368418
438,1188.5342789598108,0.14473684210526316
439,1191.3317572892042,0.14473684210526316
440,1194.1292356185972,0.14473684210526316
441,1194.1292356185972,0.15131578947368418
442,1196.9267139479907,0.16447368421052633
443,1196.9267139479907,0.15131578947368418
444,1196.9267139479907,0.1578947368421053
445,1199.7241922773837,0.16447368421052633
446,1199.7241922773837,0.17105263157894735
447,1199.7241922773837,0.17763157894736847
448,1202.5216706067772,0.17763157894736847
449,1202.5216706067772,0.19736842105263153
450,1202.5216706067772,0.1842105263157895
451,1202.5216706067772,0.1907894736842105
452,1202.5216706067772,0.20394736842105265
453,1205.3191489361702,0.20394736842105265
454,1205.3191489361702,0.21052631578947367
455,1205.3191489361702,0.2171052631578947
456,1205.3191489361702,0.22368421052631582
457,1208.1166272655632,0.26315789473684215
458,1208.1166272655632,0.2763157894736842
459,1208.1166272655632,0.24342105263157898
460,1208.1166272655632,0.23684210526315785
461,1208.1166272655632,0.22368421052631582
462,1208.1166272655632,0.23026315789473684
463,1208.1166272655632,0.26973684210526316
464,1208.1166272655632,0.256578947368421
465,1208.1166272655632,0.25
