,wavenumbers,absorbance
0,452.797478329393,0.05921052631578949
1,455.5949566587865,0.05921052631578949
2,458.3924349881795,0.05921052631578949
3,461.189913317573,0.05921052631578949
4,463.987391646966,0.05921052631578949
5,466.78486997635946,0.05921052631578949
6,469.5823483057525,0.05921052631578949
7,472.37982663514595,0.05921052631578949
8,475.17730496453896,0.05921052631578949
9,477.97478329393243,0.05921052631578949
10,480.77226162332545,0.05921052631578949
11,483.56973995271846,0.05921052631578949
12,486.36721828211193,0.05921052631578949
13,489.16469661150495,0.05921052631578949
14,491.9621749408984,0.05921052631578949
15,494.75965327029144,0.05921052631578949
16,497.5571315996849,0.05921052631578949
17,500.3546099290779,0.05921052631578949
18,503.1520882584714,0.05921052631578949
19,505.9495665878644,0.052631578947368474
20,505.9495665878644,0.05921052631578949
21,508.7470449172579,0.052631578947368474
22,511.5445232466509,0.052631578947368474
23,514.3420015760439,0.046052631578947345
24,514.3420015760439,0.052631578947368474
25,517.1394799054374,0.046052631578947345
26,519.9369582348304,0.03947368421052633
27,519.9369582348304,0.046052631578947345
28,522.7344365642239,0.03947368421052633
29,525.5319148936169,0.03289473684210531
30,525.5319148936169,0.03947368421052633
31,528.3293932230104,0.03289473684210531
32,531.1268715524034,0.03289473684210531
33,533.9243498817968,0.03289473684210531
34,536.7218282111899,0.03289473684210531
35,539.5193065405833,0.03289473684210531
36,542.3167848699763,0.03289473684210531
37,545.1142631993694,0.03289473684210531
38,547.9117415287628,0.03289473684210531
39,550.7092198581558,0.03289473684210531
40,553.5066981875493,0.03289473684210531
41,556.3041765169423,0.03289473684210531
42,559.1016548463358,0.03289473684210531
43,561.8991331757288,0.03289473684210531
44,564.6966115051223,0.03289473684210531
45,567.4940898345153,0.03289473684210531
46,570.2915681639088,0.03289473684210531
47,573.0890464933018,0.03289473684210531
48,575.8865248226948,0.03289473684210531
49,578.6840031520883,0.03289473684210531
50,581.4814814814813,0.03947368421052633
51,581.4814814814813,0.03289473684210531
52,584.2789598108748,0.03947368421052633
53,587.0764381402678,0.03289473684210531
54,587.0764381402678,0.03947368421052633
55,589.8739164696613,0.03289473684210531
56,592.6713947990543,0.02631578947368418
57,592.6713947990543,0.03289473684210531
58,595.4688731284477,0.02631578947368418
59,598.2663514578408,0.02631578947368418
60,601.0638297872342,0.02631578947368418
61,601.0638297872342,0.019736842105263164
62,603.8613081166272,0.019736842105263164
63,606.6587864460207,0.019736842105263164
64,609.4562647754137,0.02631578947368418
65,609.4562647754137,0.019736842105263164
66,612.2537431048067,0.02631578947368418
67,615.0512214342002,0.02631578947368418
68,615.0512214342002,0.019736842105263164
69,617.8486997635932,0.019736842105263164
70,620.6461780929867,0.019736842105263164
71,623.4436564223797,0.019736842105263164
72,626.2411347517732,0.019736842105263164
73,629.0386130811662,0.019736842105263164
74,631.8360914105597,0.019736842105263164
75,634.6335697399527,0.019736842105263164
76,637.4310480693462,0.019736842105263164
77,640.2285263987392,0.019736842105263164
78,643.0260047281322,0.019736842105263164
79,645.8234830575257,0.019736842105263164
80,648.6209613869187,0.019736842105263164
81,651.4184397163122,0.019736842105263164
82,654.2159180457052,0.019736842105263164
83,657.0133963750986,0.019736842105263164
84,659.8108747044917,0.019736842105263164
85,662.6083530338851,0.019736842105263164
86,665.4058313632781,0.019736842105263164
87,668.2033096926716,0.019736842105263164
88,671.0007880220646,0.019736842105263164
89,673.7982663514576,0.019736842105263164
90,673.7982663514576,0.02631578947368418
91,676.5957446808511,0.02631578947368418
92,679.3932230102441,0.02631578947368418
93,682.1907013396376,0.02631578947368418
94,684.9881796690306,0.02631578947368418
95,687.7856579984241,0.019736842105263164
96,687.7856579984241,0.02631578947368418
97,690.5831363278171,0.019736842105263164
98,693.3806146572106,0.019736842105263164
99,696.1780929866036,0.019736842105263164
100,698.9755713159971,0.019736842105263164
101,701.7730496453901,0.019736842105263164
102,704.5705279747831,0.019736842105263164
103,707.3680063041766,0.019736842105263164
104,710.1654846335696,0.013157894736842146
105,710.1654846335696,0.019736842105263164
106,712.962962962963,0.013157894736842146
107,712.962962962963,0.019736842105263164
108,715.7604412923561,0.019736842105263164
109,718.5579196217495,0.019736842105263164
110,721.3553979511425,0.019736842105263164
111,721.3553979511425,0.02631578947368418
112,724.152876280536,0.03289473684210531
113,724.152876280536,0.02631578947368418
114,726.950354609929,0.03289473684210531
115,729.7478329393225,0.03289473684210531
116,729.7478329393225,0.03947368421052633
117,732.5453112687155,0.046052631578947345
118,732.5453112687155,0.03947368421052633
119,735.3427895981085,0.052631578947368474
120,735.3427895981085,0.046052631578947345
121,738.140267927502,0.052631578947368474
122,738.140267927502,0.05921052631578949
123,740.937746256895,0.06578947368421051
124,740.937746256895,0.05921052631578949
125,743.7352245862885,0.08552631578947367
126,743.7352245862885,0.07236842105263153
127,743.7352245862885,0.09210526315789469
128,743.7352245862885,0.07894736842105265
129,743.7352245862885,0.06578947368421051
130,746.5327029156815,0.09868421052631582
131,746.5327029156815,0.09210526315789469
132,749.330181245075,0.09868421052631582
133,752.127659574468,0.09210526315789469
134,752.127659574468,0.09868421052631582
135,754.9251379038615,0.08552631578947367
136,754.9251379038615,0.09210526315789469
137,754.9251379038615,0.07894736842105265
138,757.7226162332545,0.07236842105263153
139,757.7226162332545,0.07894736842105265
140,760.520094562648,0.07236842105263153
141,763.317572892041,0.06578947368421051
142,763.317572892041,0.07236842105263153
143,763.317572892041,0.05921052631578949
144,766.115051221434,0.052631578947368474
145,766.115051221434,0.05921052631578949
146,768.9125295508275,0.03947368421052633
147,768.9125295508275,0.046052631578947345
148,768.9125295508275,0.052631578947368474
149,771.7100078802205,0.03947368421052633
150,774.507486209614,0.03289473684210531
151,774.507486209614,0.03947368421052633
152,777.304964539007,0.03289473684210531
153,780.1024428684004,0.03289473684210531
154,782.8999211977934,0.03289473684210531
155,785.6973995271869,0.02631578947368418
156,785.6973995271869,0.03289473684210531
157,788.4948778565799,0.03289473684210531
158,788.4948778565799,0.02631578947368418
159,791.2923561859734,0.03289473684210531
160,794.0898345153664,0.03289473684210531
161,796.8873128447594,0.03947368421052633
162,796.8873128447594,0.03289473684210531
163,799.6847911741529,0.046052631578947345
164,799.6847911741529,0.03947368421052633
165,802.4822695035459,0.046052631578947345
166,805.2797478329394,0.046052631578947345
167,808.0772261623324,0.046052631578947345
168,810.8747044917259,0.046052631578947345
169,810.8747044917259,0.03947368421052633
170,813.6721828211189,0.03947368421052633
171,816.4696611505124,0.046052631578947345
172,816.4696611505124,0.03947368421052633
173,819.2671394799054,0.046052631578947345
174,822.0646178092989,0.046052631578947345
175,824.8620961386919,0.046052631578947345
176,824.8620961386919,0.03947368421052633
177,827.6595744680849,0.046052631578947345
178,827.6595744680849,0.03947368421052633
179,830.4570527974784,0.05921052631578949
180,830.4570527974784,0.046052631578947345
181,830.4570527974784,0.052631578947368474
182,833.2545311268714,0.05921052631578949
183,833.2545311268714,0.06578947368421051
184,833.2545311268714,0.07236842105263153
185,836.0520094562648,0.07894736842105265
186,836.0520094562648,0.08552631578947367
187,836.0520094562648,0.07236842105263153
188,838.8494877856579,0.08552631578947367
189,841.6469661150513,0.08552631578947367
190,841.6469661150513,0.07894736842105265
191,844.4444444444443,0.07236842105263153
192,844.4444444444443,0.07894736842105265
193,847.2419227738378,0.06578947368421051
194,847.2419227738378,0.07236842105263153
195,850.0394011032308,0.06578947368421051
196,850.0394011032308,0.05921052631578949
197,850.0394011032308,0.052631578947368474
198,852.8368794326243,0.052631578947368474
199,852.8368794326243,0.046052631578947345
200,855.6343577620173,0.046052631578947345
201,855.6343577620173,0.03947368421052633
202,855.6343577620173,0.03289473684210531
203,858.4318360914103,0.03289473684210531
204,861.2293144208038,0.03289473684210531
205,861.2293144208038,0.02631578947368418
206,864.0267927501968,0.02631578947368418
207,866.8242710795903,0.02631578947368418
208,866.8242710795903,0.019736842105263164
209,869.6217494089833,0.019736842105263164
210,872.4192277383768,0.019736842105263164
211,875.2167060677698,0.019736842105263164
212,878.0141843971633,0.019736842105263164
213,880.8116627265563,0.019736842105263164
214,883.6091410559497,0.019736842105263164
215,886.4066193853428,0.019736842105263164
216,889.2040977147362,0.019736842105263164
217,892.0015760441293,0.019736842105263164
218,894.7990543735223,0.02631578947368418
219,894.7990543735223,0.019736842105263164
220,897.5965327029157,0.03289473684210531
221,897.5965327029157,0.02631578947368418
222,900.3940110323088,0.03289473684210531
223,903.1914893617022,0.03289473684210531
224,903.1914893617022,0.03947368421052633
225,905.9889676910952,0.03947368421052633
226,908.7864460204887,0.03947368421052633
227,911.5839243498817,0.03947368421052633
228,914.3814026792752,0.03947368421052633
229,917.1788810086682,0.03947368421052633
230,919.9763593380617,0.03947368421052633
231,919.9763593380617,0.046052631578947345
232,922.7738376674547,0.046052631578947345
233,922.7738376674547,0.052631578947368474
234,925.5713159968477,0.052631578947368474
235,928.3687943262412,0.05921052631578949
236,928.3687943262412,0.052631578947368474
237,931.1662726556342,0.06578947368421051
238,931.1662726556342,0.07236842105263153
239,931.1662726556342,0.05921052631578949
240,933.9637509850277,0.07236842105263153
241,936.7612293144207,0.07894736842105265
242,936.7612293144207,0.07236842105263153
243,939.5587076438142,0.07894736842105265
244,939.5587076438142,0.08552631578947367
245,942.3561859732072,0.08552631578947367
246,945.1536643026006,0.08552631578947367
247,947.9511426319937,0.09210526315789469
248,947.9511426319937,0.08552631578947367
249,950.7486209613871,0.09210526315789469
250,953.5460992907801,0.10526315789473684
251,953.5460992907801,0.09868421052631582
252,953.5460992907801,0.09210526315789469
253,956.3435776201732,0.10526315789473684
254,959.1410559495666,0.11184210526315785
255,959.1410559495666,0.10526315789473684
256,961.9385342789597,0.11184210526315785
257,961.9385342789597,0.10526315789473684
258,964.7360126083531,0.10526315789473684
259,964.7360126083531,0.09868421052631582
260,967.5334909377461,0.09868421052631582
261,970.3309692671396,0.09868421052631582
262,973.1284475965326,0.11184210526315785
263,973.1284475965326,0.09868421052631582
264,973.1284475965326,0.10526315789473684
265,975.9259259259261,0.11184210526315785
266,975.9259259259261,0.11842105263157898
267,978.7234042553191,0.11842105263157898
268,978.7234042553191,0.13157894736842102
269,978.7234042553191,0.125
270,981.5208825847126,0.13157894736842102
271,984.3183609141056,0.13157894736842102
272,984.3183609141056,0.13815789473684215
273,987.1158392434986,0.13815789473684215
274,989.9133175728921,0.13815789473684215
275,989.9133175728921,0.13157894736842102
276,992.7107959022851,0.11184210526315785
277,992.7107959022851,0.125
278,992.7107959022851,0.13157894736842102
279,992.7107959022851,0.11842105263157898
280,995.5082742316786,0.11184210526315785
281,995.5082742316786,0.10526315789473684
282,998.3057525610716,0.10526315789473684
283,998.3057525610716,0.09210526315789469
284,998.3057525610716,0.09868421052631582
285,998.3057525610716,0.08552631578947367
286,1001.103230890465,0.08552631578947367
287,1001.103230890465,0.07894736842105265
288,1003.9007092198581,0.07894736842105265
289,1003.9007092198581,0.07236842105263153
290,1006.6981875492515,0.07236842105263153
291,1009.4956658786446,0.07236842105263153
292,1009.4956658786446,0.07894736842105265
293,1012.293144208038,0.07894736842105265
294,1015.090622537431,0.07894736842105265
295,1015.090622537431,0.08552631578947367
296,1017.8881008668241,0.08552631578947367
297,1020.6855791962175,0.08552631578947367
298,1023.4830575256105,0.08552631578947367
299,1026.280535855004,0.08552631578947367
300,1029.078014184397,0.08552631578947367
301,1029.078014184397,0.07894736842105265
302,1031.8754925137905,0.07894736842105265
303,1034.6729708431835,0.07894736842105265
304,1037.470449172577,0.07894736842105265
305,1040.26792750197,0.07894736842105265
306,1043.0654058313635,0.07894736842105265
307,1045.8628841607565,0.07894736842105265
308,1048.6603624901495,0.07894736842105265
309,1048.6603624901495,0.09210526315789469
310,1048.6603624901495,0.08552631578947367
311,1051.457840819543,0.10526315789473684
312,1051.457840819543,0.09868421052631582
313,1051.457840819543,0.09210526315789469
314,1054.255319148936,0.10526315789473684
315,1054.255319148936,0.11842105263157898
316,1054.255319148936,0.125
317,1054.255319148936,0.11184210526315785
318,1057.0527974783295,0.125
319,1057.0527974783295,0.13157894736842102
320,1059.8502758077225,0.13815789473684215
321,1059.8502758077225,0.13157894736842102
322,1062.647754137116,0.13815789473684215
323,1065.445232466509,0.13815789473684215
324,1068.2427107959024,0.13815789473684215
325,1071.0401891252955,0.13815789473684215
326,1071.0401891252955,0.13157894736842102
327,1073.837667454689,0.13157894736842102
328,1073.837667454689,0.125
329,1076.635145784082,0.125
330,1079.432624113475,0.125
331,1082.2301024428684,0.125
332,1085.0275807722614,0.125
333,1085.0275807722614,0.13157894736842102
334,1087.825059101655,0.13815789473684215
335,1087.825059101655,0.13157894736842102
336,1090.622537431048,0.13815789473684215
337,1090.622537431048,0.14473684210526316
338,1093.4200157604414,0.15131578947368418
339,1093.4200157604414,0.14473684210526316
340,1096.2174940898344,0.16447368421052633
341,1096.2174940898344,0.15131578947368418
342,1096.2174940898344,0.1578947368421053
343,1099.014972419228,0.17105263157894735
344,1099.014972419228,0.16447368421052633
345,1101.812450748621,0.17105263157894735
346,1101.812450748621,0.1842105263157895
347,1101.812450748621,0.17763157894736847
348,1104.6099290780144,0.20394736842105265
349,1104.6099290780144,0.19736842105263153
350,1104.6099290780144,0.1907894736842105
351,1104.6099290780144,0.1842105263157895
352,1107.4074074074074,0.2171052631578947
353,1107.4074074074074,0.20394736842105265
354,1107.4074074074074,0.21052631578947367
355,1110.2048857368004,0.23684210526315785
356,1110.2048857368004,0.2171052631578947
357,1110.2048857368004,0.24342105263157898
358,1110.2048857368004,0.22368421052631582
359,1110.2048857368004,0.25
360,1110.2048857368004,0.23026315789473684
361,1113.0023640661939,0.256578947368421
362,1113.0023640661939,0.26315789473684215
363,1113.0023640661939,0.25
364,1115.799842395587,0.2894736842105263
365,1115.799842395587,0.2763157894736842
366,1115.799842395587,0.26973684210526316
367,1115.799842395587,0.26315789473684215
368,1115.799842395587,0.2828947368421053
369,1118.5973207249804,0.2894736842105263
370,1118.5973207249804,0.29605263157894735
371,1118.5973207249804,0.3026315789473685
372,1121.3947990543734,0.3157894736842105
373,1121.3947990543734,0.32894736842105265
374,1121.3947990543734,0.3026315789473685
375,1121.3947990543734,0.3223684210526315
376,1121.3947990543734,0.3092105263157895
377,1121.3947990543734,0.3355263157894737
378,1124.1922773837669,0.3486842105263158
379,1124.1922773837669,0.3421052631578947
380,1124.1922773837669,0.3355263157894737
381,1124.1922773837669,0.35526315789473684
382,1126.9897557131599,0.375
383,1126.9897557131599,0.381578947368421
384,1126.9897557131599,0.36184210526315785
385,1126.9897557131599,0.368421052631579
386,1126.9897557131599,0.35526315789473684
387,1129.7872340425533,0.4013157894736842
388,1129.7872340425533,0.4342105263157895
389,1129.7872340425533,0.38815789473684215
390,1129.7872340425533,0.381578947368421
391,1129.7872340425533,0.39473684210526316
392,1129.7872340425533,0.4078947368421053
393,1129.7872340425533,0.4144736842105263
394,1129.7872340425533,0.4276315789473685
395,1129.7872340425533,0.42105263157894735
396,1132.5847123719464,0.4342105263157895
397,1132.5847123719464,0.4605263157894737
398,1132.5847123719464,0.4473684210526315
399,1132.5847123719464,0.45394736842105265
400,1132.5847123719464,0.4407894736842105
401,1135.3821907013398,0.48026315789473684
402,1135.3821907013398,0.48684210526315785
403,1135.3821907013398,0.5197368421052632
404,1135.3821907013398,0.513157894736842
405,1135.3821907013398,0.4736842105263158
406,1135.3821907013398,0.4605263157894737
407,1135.3821907013398,0.4671052631578947
408,1135.3821907013398,0.506578947368421
409,1135.3821907013398,0.5
410,1135.3821907013398,0.493421052631579
411,1138.1796690307328,0.5197368421052632
412,1138.1796690307328,0.5394736842105263
413,1138.1796690307328,0.5263157894736843
414,1138.1796690307328,0.5328947368421053
415,1140.9771473601263,0.5526315789473684
416,1140.9771473601263,0.5460526315789473
417,1140.9771473601263,0.5789473684210527
418,1140.9771473601263,0.5723684210526316
419,1140.9771473601263,0.5394736842105263
420,1140.9771473601263,0.5592105263157895
421,1140.9771473601263,0.5657894736842105
422,1143.7746256895193,0.5789473684210527
423,1146.5721040189123,0.5657894736842105
424,1146.5721040189123,0.5789473684210527
425,1146.5721040189123,0.5723684210526316
426,1149.3695823483058,0.5592105263157895
427,1149.3695823483058,0.5657894736842105
428,1152.1670606776988,0.5526315789473684
429,1152.1670606776988,0.5592105263157895
430,1154.9645390070923,0.5526315789473684
431,1157.7620173364853,0.5592105263157895
432,1157.7620173364853,0.5526315789473684
433,1160.5594956658788,0.5592105263157895
434,1160.5594956658788,0.5526315789473684
435,1163.3569739952718,0.5526315789473684
436,1166.1544523246653,0.5460526315789473
437,1166.1544523246653,0.5526315789473684
438,1168.9519306540583,0.5394736842105263
439,1168.9519306540583,0.5460526315789473
440,1171.7494089834518,0.5263157894736843
441,1171.7494089834518,0.5394736842105263
442,1171.7494089834518,0.5328947368421053
443,1171.7494089834518,0.5197368421052632
444,1174.5468873128448,0.506578947368421
445,1174.5468873128448,0.513157894736842
446,1174.5468873128448,0.5197368421052632
447,1177.3443656422378,0.506578947368421
448,1177.3443656422378,0.5
449,1177.3443656422378,0.493421052631579
450,1177.3443656422378,0.48684210526315785
451,1177.3443656422378,0.48026315789473684
452,1177.3443656422378,0.4736842105263158
453,1180.1418439716313,0.4605263157894737
454,1180.1418439716313,0.4671052631578947
455,1180.1418439716313,0.4736842105263158
456,1182.9393223010243,0.4605263157894737
457,1185.7368006304177,0.4605263157894737
458,1185.7368006304177,0.4473684210526315
459,1185.7368006304177,0.45394736842105265
460,1188.5342789598108,0.4342105263157895
461,1188.5342789598108,0.4407894736842105
462,1188.5342789598108,0.4473684210526315
463,1191.3317572892042,0.42105263157894735
464,1191.3317572892042,0.4276315789473685
465,1191.3317572892042,0.4013157894736842
466,1191.3317572892042,0.38815789473684215
467,1191.3317572892042,0.39473684210526316
468,1191.3317572892042,0.4078947368421053
