,wavenumbers,absorbance
0,452.797478329393,0.019736842105263164
1,452.797478329393,0.02631578947368418
2,455.5949566587865,0.019736842105263164
3,455.5949566587865,0.02631578947368418
4,458.3924349881795,0.02631578947368418
5,461.189913317573,0.02631578947368418
6,463.987391646966,0.02631578947368418
7,466.78486997635946,0.02631578947368418
8,469.5823483057525,0.03289473684210531
9,469.5823483057525,0.02631578947368418
10,472.37982663514595,0.03289473684210531
11,475.17730496453896,0.03289473684210531
12,477.97478329393243,0.02631578947368418
13,477.97478329393243,0.03289473684210531
14,480.77226162332545,0.02631578947368418
15,483.56973995271846,0.019736842105263164
16,483.56973995271846,0.02631578947368418
17,486.36721828211193,0.019736842105263164
18,489.16469661150495,0.019736842105263164
19,491.9621749408984,0.019736842105263164
20,494.75965327029144,0.019736842105263164
21,497.5571315996849,0.019736842105263164
22,500.3546099290779,0.019736842105263164
23,503.1520882584714,0.019736842105263164
24,505.9495665878644,0.019736842105263164
25,508.7470449172579,0.019736842105263164
26,511.5445232466509,0.019736842105263164
27,514.3420015760439,0.019736842105263164
28,517.1394799054374,0.019736842105263164
29,519.9369582348304,0.019736842105263164
30,522.7344365642239,0.019736842105263164
31,525.5319148936169,0.019736842105263164
32,528.3293932230104,0.019736842105263164
33,531.1268715524034,0.019736842105263164
34,533.9243498817968,0.019736842105263164
35,536.7218282111899,0.019736842105263164
36,539.5193065405833,0.019736842105263164
37,542.3167848699763,0.019736842105263164
38,545.1142631993694,0.019736842105263164
39,547.9117415287628,0.019736842105263164
40,550.7092198581558,0.019736842105263164
41,553.5066981875493,0.019736842105263164
42,556.3041765169423,0.019736842105263164
43,559.1016548463358,0.019736842105263164
44,561.8991331757288,0.019736842105263164
45,564.6966115051223,0.019736842105263164
46,567.4940898345153,0.019736842105263164
47,570.2915681639088,0.019736842105263164
48,573.0890464933018,0.019736842105263164
49,575.8865248226948,0.019736842105263164
50,578.6840031520883,0.019736842105263164
51,581.4814814814813,0.019736842105263164
52,584.2789598108748,0.019736842105263164
53,587.0764381402678,0.019736842105263164
54,587.0764381402678,0.02631578947368418
55,589.8739164696613,0.03289473684210531
56,589.8739164696613,0.02631578947368418
57,592.6713947990543,0.03289473684210531
58,592.6713947990543,0.03947368421052633
59,595.4688731284477,0.03947368421052633
60,595.4688731284477,0.05921052631578949
61,595.4688731284477,0.052631578947368474
62,595.4688731284477,0.046052631578947345
63,598.2663514578408,0.06578947368421051
64,598.2663514578408,0.05921052631578949
65,601.0638297872342,0.06578947368421051
66,601.0638297872342,0.07236842105263153
67,603.8613081166272,0.06578947368421051
68,603.8613081166272,0.07236842105263153
69,606.6587864460207,0.05921052631578949
70,606.6587864460207,0.06578947368421051
71,606.6587864460207,0.052631578947368474
72,609.4562647754137,0.046052631578947345
73,609.4562647754137,0.03947368421052633
74,609.4562647754137,0.052631578947368474
75,612.2537431048067,0.03289473684210531
76,612.2537431048067,0.03947368421052633
77,615.0512214342002,0.03289473684210531
78,617.8486997635932,0.03289473684210531
79,620.6461780929867,0.03947368421052633
80,620.6461780929867,0.03289473684210531
81,623.4436564223797,0.03947368421052633
82,626.2411347517732,0.03947368421052633
83,629.0386130811662,0.046052631578947345
84,629.0386130811662,0.03947368421052633
85,631.8360914105597,0.03947368421052633
86,631.8360914105597,0.046052631578947345
87,634.6335697399527,0.03947368421052633
88,637.4310480693462,0.03289473684210531
89,637.4310480693462,0.03947368421052633
90,640.2285263987392,0.03289473684210531
91,643.0260047281322,0.03289473684210531
92,645.8234830575257,0.03289473684210531
93,648.6209613869187,0.03289473684210531
94,651.4184397163122,0.03289473684210531
95,654.2159180457052,0.03289473684210531
96,654.2159180457052,0.02631578947368418
97,657.0133963750986,0.02631578947368418
98,659.8108747044917,0.02631578947368418
99,662.6083530338851,0.019736842105263164
100,662.6083530338851,0.02631578947368418
101,665.4058313632781,0.019736842105263164
102,668.2033096926716,0.019736842105263164
103,671.0007880220646,0.019736842105263164
104,673.7982663514576,0.019736842105263164
105,676.5957446808511,0.019736842105263164
106,679.3932230102441,0.019736842105263164
107,682.1907013396376,0.019736842105263164
108,684.9881796690306,0.019736842105263164
109,687.7856579984241,0.019736842105263164
110,690.5831363278171,0.019736842105263164
111,693.3806146572106,0.019736842105263164
112,696.1780929866036,0.019736842105263164
113,698.9755713159971,0.019736842105263164
114,701.7730496453901,0.019736842105263164
115,704.5705279747831,0.019736842105263164
116,707.3680063041766,0.019736842105263164
117,710.1654846335696,0.019736842105263164
118,712.962962962963,0.019736842105263164
119,715.7604412923561,0.019736842105263164
120,718.5579196217495,0.019736842105263164
121,721.3553979511425,0.019736842105263164
122,724.152876280536,0.019736842105263164
123,726.950354609929,0.019736842105263164
124,729.7478329393225,0.019736842105263164
125,732.5453112687155,0.019736842105263164
126,732.5453112687155,0.02631578947368418
127,735.3427895981085,0.02631578947368418
128,738.140267927502,0.02631578947368418
129,738.140267927502,0.019736842105263164
130,740.937746256895,0.019736842105263164
131,743.7352245862885,0.019736842105263164
132,743.7352245862885,0.02631578947368418
133,746.5327029156815,0.02631578947368418
134,749.330181245075,0.02631578947368418
135,752.127659574468,0.02631578947368418
136,754.9251379038615,0.02631578947368418
137,757.7226162332545,0.02631578947368418
138,760.520094562648,0.02631578947368418
139,763.317572892041,0.02631578947368418
140,763.317572892041,0.019736842105263164
141,766.115051221434,0.019736842105263164
142,768.9125295508275,0.019736842105263164
143,771.7100078802205,0.019736842105263164
144,774.507486209614,0.019736842105263164
145,777.304964539007,0.019736842105263164
146,780.1024428684004,0.02631578947368418
147,780.1024428684004,0.019736842105263164
148,782.8999211977934,0.02631578947368418
149,785.6973995271869,0.03289473684210531
150,785.6973995271869,0.02631578947368418
151,788.4948778565799,0.03289473684210531
152,791.2923561859734,0.03289473684210531
153,794.0898345153664,0.03289473684210531
154,794.0898345153664,0.03947368421052633
155,796.8873128447594,0.03289473684210531
156,799.6847911741529,0.03289473684210531
157,802.4822695035459,0.03289473684210531
158,805.2797478329394,0.03289473684210531
159,805.2797478329394,0.02631578947368418
160,808.0772261623324,0.02631578947368418
161,810.8747044917259,0.02631578947368418
162,813.6721828211189,0.02631578947368418
163,816.4696611505124,0.02631578947368418
164,819.2671394799054,0.02631578947368418
165,822.0646178092989,0.02631578947368418
166,824.8620961386919,0.03289473684210531
167,824.8620961386919,0.02631578947368418
168,827.6595744680849,0.03289473684210531
169,830.4570527974784,0.03289473684210531
170,833.2545311268714,0.03289473684210531
171,836.0520094562648,0.03289473684210531
172,838.8494877856579,0.03289473684210531
173,841.6469661150513,0.03289473684210531
174,844.4444444444443,0.03289473684210531
175,847.2419227738378,0.03289473684210531
176,847.2419227738378,0.02631578947368418
177,850.0394011032308,0.02631578947368418
178,852.8368794326243,0.02631578947368418
179,855.6343577620173,0.02631578947368418
180,858.4318360914103,0.02631578947368418
181,861.2293144208038,0.02631578947368418
182,864.0267927501968,0.02631578947368418
183,866.8242710795903,0.02631578947368418
184,869.6217494089833,0.02631578947368418
185,872.4192277383768,0.02631578947368418
186,875.2167060677698,0.03289473684210531
187,875.2167060677698,0.02631578947368418
188,878.0141843971633,0.03289473684210531
189,880.8116627265563,0.03289473684210531
190,883.6091410559497,0.03289473684210531
191,886.4066193853428,0.03289473684210531
192,889.2040977147362,0.03289473684210531
193,892.0015760441293,0.03289473684210531
194,894.7990543735223,0.03289473684210531
195,897.5965327029157,0.03947368421052633
196,897.5965327029157,0.03289473684210531
197,900.3940110323088,0.03947368421052633
198,903.1914893617022,0.03947368421052633
199,905.9889676910952,0.03947368421052633
200,908.7864460204887,0.046052631578947345
201,908.7864460204887,0.03947368421052633
202,911.5839243498817,0.046052631578947345
203,914.3814026792752,0.046052631578947345
204,917.1788810086682,0.052631578947368474
205,917.1788810086682,0.046052631578947345
206,919.9763593380617,0.052631578947368474
207,922.7738376674547,0.05921052631578949
208,922.7738376674547,0.052631578947368474
209,922.7738376674547,0.06578947368421051
210,925.5713159968477,0.07236842105263153
211,925.5713159968477,0.06578947368421051
212,928.3687943262412,0.07236842105263153
213,931.1662726556342,0.08552631578947367
214,931.1662726556342,0.07894736842105265
215,931.1662726556342,0.07236842105263153
216,933.9637509850277,0.09210526315789469
217,933.9637509850277,0.08552631578947367
218,936.7612293144207,0.10526315789473684
219,936.7612293144207,0.09210526315789469
220,936.7612293144207,0.09868421052631582
221,939.5587076438142,0.10526315789473684
222,939.5587076438142,0.11184210526315785
223,942.3561859732072,0.11184210526315785
224,945.1536643026006,0.11184210526315785
225,945.1536643026006,0.10526315789473684
226,947.9511426319937,0.10526315789473684
227,947.9511426319937,0.09210526315789469
228,947.9511426319937,0.09868421052631582
229,950.7486209613871,0.09210526315789469
230,950.7486209613871,0.08552631578947367
231,953.5460992907801,0.08552631578947367
232,953.5460992907801,0.07894736842105265
233,953.5460992907801,0.07236842105263153
234,956.3435776201732,0.07236842105263153
235,959.1410559495666,0.07236842105263153
236,961.9385342789597,0.07236842105263153
237,961.9385342789597,0.06578947368421051
238,964.7360126083531,0.06578947368421051
239,967.5334909377461,0.05921052631578949
240,967.5334909377461,0.06578947368421051
241,970.3309692671396,0.05921052631578949
242,973.1284475965326,0.05921052631578949
243,975.9259259259261,0.05921052631578949
244,978.7234042553191,0.05921052631578949
245,981.5208825847126,0.05921052631578949
246,984.3183609141056,0.05921052631578949
247,987.1158392434986,0.06578947368421051
248,987.1158392434986,0.05921052631578949
249,989.9133175728921,0.06578947368421051
250,992.7107959022851,0.06578947368421051
251,992.7107959022851,0.07236842105263153
252,995.5082742316786,0.07894736842105265
253,995.5082742316786,0.07236842105263153
254,998.3057525610716,0.07894736842105265
255,998.3057525610716,0.08552631578947367
256,1001.103230890465,0.08552631578947367
257,1001.103230890465,0.09868421052631582
258,1001.103230890465,0.09210526315789469
259,1003.9007092198581,0.10526315789473684
260,1003.9007092198581,0.125
261,1003.9007092198581,0.11842105263157898
262,1003.9007092198581,0.09868421052631582
263,1003.9007092198581,0.11184210526315785
264,1006.6981875492515,0.125
265,1006.6981875492515,0.13157894736842102
266,1006.6981875492515,0.13815789473684215
267,1009.4956658786446,0.17763157894736847
268,1009.4956658786446,0.17105263157894735
269,1009.4956658786446,0.15131578947368418
270,1009.4956658786446,0.14473684210526316
271,1009.4956658786446,0.13815789473684215
272,1009.4956658786446,0.1842105263157895
273,1009.4956658786446,0.1578947368421053
274,1009.4956658786446,0.16447368421052633
275,1012.293144208038,0.21052631578947367
276,1012.293144208038,0.19736842105263153
277,1012.293144208038,0.1842105263157895
278,1012.293144208038,0.20394736842105265
279,1012.293144208038,0.1907894736842105
280,1015.090622537431,0.23026315789473684
281,1015.090622537431,0.2171052631578947
282,1015.090622537431,0.22368421052631582
283,1015.090622537431,0.21052631578947367
284,1017.8881008668241,0.23026315789473684
285,1017.8881008668241,0.23684210526315785
286,1020.6855791962175,0.23684210526315785
287,1020.6855791962175,0.23026315789473684
288,1023.4830575256105,0.2171052631578947
289,1023.4830575256105,0.23026315789473684
290,1023.4830575256105,0.21052631578947367
291,1023.4830575256105,0.22368421052631582
292,1026.280535855004,0.19736842105263153
293,1026.280535855004,0.21052631578947367
294,1026.280535855004,0.20394736842105265
295,1029.078014184397,0.1907894736842105
296,1029.078014184397,0.19736842105263153
297,1029.078014184397,0.1842105263157895
298,1031.8754925137905,0.17763157894736847
299,1031.8754925137905,0.1842105263157895
300,1034.6729708431835,0.17763157894736847
301,1034.6729708431835,0.17105263157894735
302,1037.470449172577,0.17105263157894735
303,1040.26792750197,0.17105263157894735
304,1040.26792750197,0.16447368421052633
305,1043.0654058313635,0.16447368421052633
306,1043.0654058313635,0.1578947368421053
307,1045.8628841607565,0.1578947368421053
308,1048.6603624901495,0.15131578947368418
309,1048.6603624901495,0.14473684210526316
310,1048.6603624901495,0.1578947368421053
311,1051.457840819543,0.13815789473684215
312,1051.457840819543,0.14473684210526316
313,1054.255319148936,0.13815789473684215
314,1057.0527974783295,0.13815789473684215
315,1059.8502758077225,0.13815789473684215
316,1062.647754137116,0.13815789473684215
317,1065.445232466509,0.13157894736842102
318,1065.445232466509,0.13815789473684215
319,1068.2427107959024,0.13157894736842102
320,1071.0401891252955,0.13157894736842102
321,1073.837667454689,0.13157894736842102
322,1076.635145784082,0.13157894736842102
323,1079.432624113475,0.13157894736842102
324,1082.2301024428684,0.13157894736842102
325,1085.0275807722614,0.13157894736842102
326,1087.825059101655,0.13157894736842102
327,1090.622537431048,0.13815789473684215
328,1090.622537431048,0.13157894736842102
329,1093.4200157604414,0.13815789473684215
330,1096.2174940898344,0.13815789473684215
331,1099.014972419228,0.13815789473684215
332,1101.812450748621,0.13815789473684215
333,1104.6099290780144,0.13815789473684215
334,1104.6099290780144,0.14473684210526316
335,1107.4074074074074,0.14473684210526316
336,1110.2048857368004,0.14473684210526316
337,1110.2048857368004,0.15131578947368418
338,1113.0023640661939,0.15131578947368418
339,1115.799842395587,0.15131578947368418
340,1118.5973207249804,0.15131578947368418
341,1121.3947990543734,0.15131578947368418
342,1124.1922773837669,0.15131578947368418
343,1124.1922773837669,0.14473684210526316
344,1126.9897557131599,0.14473684210526316
345,1129.7872340425533,0.14473684210526316
346,1129.7872340425533,0.13815789473684215
347,1129.7872340425533,0.13157894736842102
348,1132.5847123719464,0.13157894736842102
349,1132.5847123719464,0.125
350,1135.3821907013398,0.11842105263157898
351,1135.3821907013398,0.11184210526315785
352,1135.3821907013398,0.125
353,1138.1796690307328,0.11184210526315785
354,1138.1796690307328,0.10526315789473684
355,1140.9771473601263,0.09868421052631582
356,1140.9771473601263,0.10526315789473684
357,1143.7746256895193,0.09868421052631582
358,1143.7746256895193,0.09210526315789469
359,1149.3695823483058,0.09210526315789469
360,1152.1670606776988,0.09868421052631582
361,1152.1670606776988,0.09210526315789469
362,1154.9645390070923,0.10526315789473684
363,1154.9645390070923,0.09868421052631582
364,1157.7620173364853,0.10526315789473684
365,1157.7620173364853,0.11184210526315785
366,1160.5594956658788,0.11184210526315785
367,1160.5594956658788,0.11842105263157898
368,1160.5594956658788,0.125
369,1163.3569739952718,0.125
370,1163.3569739952718,0.13157894736842102
371,1166.1544523246653,0.13157894736842102
372,1166.1544523246653,0.13815789473684215
373,1168.9519306540583,0.14473684210526316
374,1168.9519306540583,0.13815789473684215
375,1171.7494089834518,0.14473684210526316
376,1171.7494089834518,0.13815789473684215
377,1174.5468873128448,0.13815789473684215
378,1174.5468873128448,0.13157894736842102
379,1177.3443656422378,0.13157894736842102
380,1177.3443656422378,0.11842105263157898
381,1177.3443656422378,0.125
382,1180.1418439716313,0.11842105263157898
383,1180.1418439716313,0.11184210526315785
384,1182.9393223010243,0.11184210526315785
385,1185.7368006304177,0.10526315789473684
386,1185.7368006304177,0.11184210526315785
387,1188.5342789598108,0.10526315789473684
388,1191.3317572892042,0.10526315789473684
389,1191.3317572892042,0.11184210526315785
390,1194.1292356185972,0.11184210526315785
391,1196.9267139479907,0.11184210526315785
392,1196.9267139479907,0.11842105263157898
393,1199.7241922773837,0.11842105263157898
394,1199.7241922773837,0.125
395,1202.5216706067772,0.125
396,1202.5216706067772,0.13157894736842102
397,1202.5216706067772,0.14473684210526316
398,1202.5216706067772,0.13815789473684215
399,1205.3191489361702,0.15131578947368418
400,1205.3191489361702,0.1578947368421053
401,1205.3191489361702,0.14473684210526316
402,1208.1166272655632,0.19736842105263153
403,1208.1166272655632,0.17105263157894735
404,1208.1166272655632,0.1578947368421053
405,1208.1166272655632,0.1907894736842105
406,1208.1166272655632,0.1842105263157895
407,1208.1166272655632,0.17763157894736847
408,1208.1166272655632,0.16447368421052633
409,1210.9141055949567,0.22368421052631582
410,1210.9141055949567,0.19736842105263153
411,1210.9141055949567,0.2171052631578947
412,1210.9141055949567,0.21052631578947367
413,1210.9141055949567,0.20394736842105265
414,1213.7115839243497,0.25
415,1213.7115839243497,0.256578947368421
416,1213.7115839243497,0.22368421052631582
417,1213.7115839243497,0.24342105263157898
418,1213.7115839243497,0.23026315789473684
419,1213.7115839243497,0.23684210526315785
420,1216.5090622537432,0.29605263157894735
421,1216.5090622537432,0.2894736842105263
422,1216.5090622537432,0.2763157894736842
423,1216.5090622537432,0.3026315789473685
424,1216.5090622537432,0.3092105263157895
425,1216.5090622537432,0.2828947368421053
426,1216.5090622537432,0.3157894736842105
427,1216.5090622537432,0.3223684210526315
428,1216.5090622537432,0.26973684210526316
429,1216.5090622537432,0.32894736842105265
430,1216.5090622537432,0.26315789473684215
431,1216.5090622537432,0.256578947368421
432,1216.5090622537432,0.3355263157894737
433,1219.3065405831362,0.36184210526315785
434,1219.3065405831362,0.368421052631579
435,1219.3065405831362,0.3421052631578947
436,1219.3065405831362,0.3355263157894737
437,1219.3065405831362,0.35526315789473684
438,1219.3065405831362,0.375
439,1219.3065405831362,0.381578947368421
440,1219.3065405831362,0.38815789473684215
441,1219.3065405831362,0.3486842105263158
442,1222.1040189125297,0.48026315789473684
443,1222.1040189125297,0.493421052631579
444,1222.1040189125297,0.48684210526315785
445,1222.1040189125297,0.42105263157894735
446,1222.1040189125297,0.4407894736842105
447,1222.1040189125297,0.4078947368421053
448,1222.1040189125297,0.4276315789473685
449,1222.1040189125297,0.39473684210526316
450,1222.1040189125297,0.4342105263157895
451,1222.1040189125297,0.38815789473684215
452,1222.1040189125297,0.4144736842105263
453,1222.1040189125297,0.4473684210526315
454,1222.1040189125297,0.4013157894736842
455,1222.1040189125297,0.4605263157894737
456,1222.1040189125297,0.4671052631578947
457,1222.1040189125297,0.4736842105263158
458,1222.1040189125297,0.45394736842105265
459,1224.9014972419227,0.5263157894736843
460,1224.9014972419227,0.5460526315789473
461,1224.9014972419227,0.5197368421052632
462,1224.9014972419227,0.5394736842105263
463,1224.9014972419227,0.513157894736842
464,1224.9014972419227,0.5328947368421053
465,1224.9014972419227,0.5
