,wavenumbers,absorbance
0,452.797478329393,0.03947368421052633
1,452.797478329393,0.019736842105263164
2,452.797478329393,0.03289473684210531
3,452.797478329393,0.02631578947368418
4,452.797478329393,0.046052631578947345
5,455.5949566587865,0.019736842105263164
6,455.5949566587865,0.02631578947368418
7,458.3924349881795,0.02631578947368418
8,458.3924349881795,0.019736842105263164
9,461.189913317573,0.019736842105263164
10,463.987391646966,0.019736842105263164
11,463.987391646966,0.02631578947368418
12,466.78486997635946,0.02631578947368418
13,469.5823483057525,0.02631578947368418
14,472.37982663514595,0.02631578947368418
15,475.17730496453896,0.02631578947368418
16,477.97478329393243,0.02631578947368418
17,480.77226162332545,0.02631578947368418
18,483.56973995271846,0.02631578947368418
19,486.36721828211193,0.02631578947368418
20,489.16469661150495,0.02631578947368418
21,489.16469661150495,0.019736842105263164
22,491.9621749408984,0.019736842105263164
23,494.75965327029144,0.019736842105263164
24,497.5571315996849,0.019736842105263164
25,500.3546099290779,0.019736842105263164
26,503.1520882584714,0.019736842105263164
27,505.9495665878644,0.019736842105263164
28,508.7470449172579,0.019736842105263164
29,511.5445232466509,0.019736842105263164
30,514.3420015760439,0.019736842105263164
31,517.1394799054374,0.019736842105263164
32,519.9369582348304,0.019736842105263164
33,522.7344365642239,0.019736842105263164
34,525.5319148936169,0.019736842105263164
35,528.3293932230104,0.019736842105263164
36,531.1268715524034,0.019736842105263164
37,533.9243498817968,0.019736842105263164
38,536.7218282111899,0.019736842105263164
39,539.5193065405833,0.019736842105263164
40,542.3167848699763,0.019736842105263164
41,545.1142631993694,0.019736842105263164
42,547.9117415287628,0.019736842105263164
43,550.7092198581558,0.02631578947368418
44,550.7092198581558,0.019736842105263164
45,553.5066981875493,0.02631578947368418
46,556.3041765169423,0.019736842105263164
47,556.3041765169423,0.02631578947368418
48,559.1016548463358,0.02631578947368418
49,559.1016548463358,0.019736842105263164
50,561.8991331757288,0.02631578947368418
51,564.6966115051223,0.02631578947368418
52,567.4940898345153,0.02631578947368418
53,570.2915681639088,0.02631578947368418
54,573.0890464933018,0.02631578947368418
55,575.8865248226948,0.02631578947368418
56,578.6840031520883,0.02631578947368418
57,581.4814814814813,0.02631578947368418
58,581.4814814814813,0.03289473684210531
59,584.2789598108748,0.03289473684210531
60,587.0764381402678,0.02631578947368418
61,587.0764381402678,0.03289473684210531
62,589.8739164696613,0.03289473684210531
63,589.8739164696613,0.02631578947368418
64,592.6713947990543,0.03289473684210531
65,595.4688731284477,0.03289473684210531
66,598.2663514578408,0.03289473684210531
67,601.0638297872342,0.03289473684210531
68,603.8613081166272,0.03289473684210531
69,606.6587864460207,0.03289473684210531
70,609.4562647754137,0.03289473684210531
71,612.2537431048067,0.03289473684210531
72,615.0512214342002,0.03289473684210531
73,617.8486997635932,0.03289473684210531
74,620.6461780929867,0.03289473684210531
75,623.4436564223797,0.03289473684210531
76,626.2411347517732,0.03289473684210531
77,629.0386130811662,0.03289473684210531
78,631.8360914105597,0.03289473684210531
79,634.6335697399527,0.03289473684210531
80,637.4310480693462,0.03947368421052633
81,637.4310480693462,0.03289473684210531
82,640.2285263987392,0.03947368421052633
83,643.0260047281322,0.03947368421052633
84,645.8234830575257,0.03947368421052633
85,648.6209613869187,0.03947368421052633
86,648.6209613869187,0.046052631578947345
87,651.4184397163122,0.046052631578947345
88,654.2159180457052,0.046052631578947345
89,657.0133963750986,0.046052631578947345
90,657.0133963750986,0.052631578947368474
91,659.8108747044917,0.05921052631578949
92,659.8108747044917,0.052631578947368474
93,662.6083530338851,0.05921052631578949
94,662.6083530338851,0.06578947368421051
95,665.4058313632781,0.06578947368421051
96,668.2033096926716,0.07894736842105265
97,668.2033096926716,0.06578947368421051
98,668.2033096926716,0.07236842105263153
99,671.0007880220646,0.08552631578947367
100,671.0007880220646,0.07894736842105265
101,673.7982663514576,0.08552631578947367
102,673.7982663514576,0.09210526315789469
103,676.5957446808511,0.09210526315789469
104,676.5957446808511,0.09868421052631582
105,679.3932230102441,0.09868421052631582
106,682.1907013396376,0.09868421052631582
107,682.1907013396376,0.10526315789473684
108,684.9881796690306,0.10526315789473684
109,687.7856579984241,0.10526315789473684
110,690.5831363278171,0.10526315789473684
111,693.3806146572106,0.10526315789473684
112,696.1780929866036,0.10526315789473684
113,698.9755713159971,0.10526315789473684
114,701.7730496453901,0.10526315789473684
115,704.5705279747831,0.10526315789473684
116,707.3680063041766,0.11184210526315785
117,707.3680063041766,0.10526315789473684
118,710.1654846335696,0.11184210526315785
119,712.962962962963,0.11184210526315785
120,712.962962962963,0.11842105263157898
121,715.7604412923561,0.11842105263157898
122,718.5579196217495,0.125
123,718.5579196217495,0.11842105263157898
124,721.3553979511425,0.125
125,724.152876280536,0.11842105263157898
126,724.152876280536,0.125
127,726.950354609929,0.11184210526315785
128,726.950354609929,0.11842105263157898
129,729.7478329393225,0.11184210526315785
130,732.5453112687155,0.10526315789473684
131,732.5453112687155,0.09868421052631582
132,732.5453112687155,0.11184210526315785
133,735.3427895981085,0.09868421052631582
134,738.140267927502,0.08552631578947367
135,738.140267927502,0.09210526315789469
136,738.140267927502,0.09868421052631582
137,740.937746256895,0.08552631578947367
138,743.7352245862885,0.07894736842105265
139,743.7352245862885,0.08552631578947367
140,743.7352245862885,0.07236842105263153
141,746.5327029156815,0.07236842105263153
142,749.330181245075,0.06578947368421051
143,749.330181245075,0.07236842105263153
144,752.127659574468,0.06578947368421051
145,752.127659574468,0.07236842105263153
146,754.9251379038615,0.06578947368421051
147,757.7226162332545,0.06578947368421051
148,760.520094562648,0.06578947368421051
149,760.520094562648,0.05921052631578949
150,763.317572892041,0.06578947368421051
151,763.317572892041,0.05921052631578949
152,766.115051221434,0.06578947368421051
153,766.115051221434,0.05921052631578949
154,768.9125295508275,0.05921052631578949
155,771.7100078802205,0.05921052631578949
156,774.507486209614,0.05921052631578949
157,777.304964539007,0.05921052631578949
158,780.1024428684004,0.05921052631578949
159,782.8999211977934,0.05921052631578949
160,785.6973995271869,0.052631578947368474
161,785.6973995271869,0.05921052631578949
162,788.4948778565799,0.052631578947368474
163,791.2923561859734,0.052631578947368474
164,794.0898345153664,0.052631578947368474
165,796.8873128447594,0.052631578947368474
166,799.6847911741529,0.046052631578947345
167,799.6847911741529,0.052631578947368474
168,802.4822695035459,0.052631578947368474
169,805.2797478329394,0.046052631578947345
170,805.2797478329394,0.052631578947368474
171,808.0772261623324,0.046052631578947345
172,810.8747044917259,0.046052631578947345
173,813.6721828211189,0.046052631578947345
174,816.4696611505124,0.046052631578947345
175,819.2671394799054,0.046052631578947345
176,822.0646178092989,0.046052631578947345
177,824.8620961386919,0.046052631578947345
178,827.6595744680849,0.046052631578947345
179,830.4570527974784,0.046052631578947345
180,833.2545311268714,0.046052631578947345
181,836.0520094562648,0.046052631578947345
182,838.8494877856579,0.046052631578947345
183,841.6469661150513,0.046052631578947345
184,844.4444444444443,0.046052631578947345
185,847.2419227738378,0.046052631578947345
186,850.0394011032308,0.046052631578947345
187,852.8368794326243,0.046052631578947345
188,855.6343577620173,0.046052631578947345
189,858.4318360914103,0.046052631578947345
190,861.2293144208038,0.046052631578947345
191,864.0267927501968,0.046052631578947345
192,866.8242710795903,0.046052631578947345
193,866.8242710795903,0.052631578947368474
194,869.6217494089833,0.052631578947368474
195,872.4192277383768,0.052631578947368474
196,875.2167060677698,0.052631578947368474
197,878.0141843971633,0.052631578947368474
198,880.8116627265563,0.052631578947368474
199,880.8116627265563,0.05921052631578949
200,883.6091410559497,0.05921052631578949
201,886.4066193853428,0.06578947368421051
202,886.4066193853428,0.05921052631578949
203,889.2040977147362,0.07236842105263153
204,889.2040977147362,0.06578947368421051
205,892.0015760441293,0.08552631578947367
206,892.0015760441293,0.07894736842105265
207,892.0015760441293,0.07236842105263153
208,894.7990543735223,0.10526315789473684
209,894.7990543735223,0.08552631578947367
210,894.7990543735223,0.09210526315789469
211,894.7990543735223,0.09868421052631582
212,897.5965327029157,0.11842105263157898
213,897.5965327029157,0.15131578947368418
214,897.5965327029157,0.14473684210526316
215,897.5965327029157,0.11184210526315785
216,897.5965327029157,0.1578947368421053
217,897.5965327029157,0.13815789473684215
218,897.5965327029157,0.125
219,897.5965327029157,0.13157894736842102
220,897.5965327029157,0.10526315789473684
221,900.3940110323088,0.19736842105263153
222,900.3940110323088,0.1578947368421053
223,900.3940110323088,0.16447368421052633
224,900.3940110323088,0.17105263157894735
225,900.3940110323088,0.17763157894736847
226,900.3940110323088,0.1842105263157895
227,900.3940110323088,0.1907894736842105
228,900.3940110323088,0.20394736842105265
229,903.1914893617022,0.24342105263157898
230,903.1914893617022,0.21052631578947367
231,903.1914893617022,0.23026315789473684
232,903.1914893617022,0.2171052631578947
233,903.1914893617022,0.23684210526315785
234,903.1914893617022,0.22368421052631582
235,903.1914893617022,0.20394736842105265
236,905.9889676910952,0.3157894736842105
237,905.9889676910952,0.3092105263157895
238,905.9889676910952,0.3026315789473685
239,905.9889676910952,0.24342105263157898
240,905.9889676910952,0.25
241,905.9889676910952,0.256578947368421
242,905.9889676910952,0.29605263157894735
243,905.9889676910952,0.26315789473684215
244,905.9889676910952,0.2828947368421053
245,905.9889676910952,0.2894736842105263
246,905.9889676910952,0.26973684210526316
247,905.9889676910952,0.2763157894736842
248,908.7864460204887,0.3157894736842105
249,908.7864460204887,0.3223684210526315
250,911.5839243498817,0.29605263157894735
251,911.5839243498817,0.3157894736842105
252,911.5839243498817,0.3026315789473685
253,911.5839243498817,0.3223684210526315
254,911.5839243498817,0.3092105263157895
255,914.3814026792752,0.2763157894736842
256,914.3814026792752,0.2894736842105263
257,914.3814026792752,0.26973684210526316
258,914.3814026792752,0.29605263157894735
259,914.3814026792752,0.26315789473684215
260,914.3814026792752,0.2828947368421053
261,917.1788810086682,0.22368421052631582
262,917.1788810086682,0.2171052631578947
263,917.1788810086682,0.23684210526315785
264,917.1788810086682,0.24342105263157898
265,917.1788810086682,0.23026315789473684
266,917.1788810086682,0.26315789473684215
267,917.1788810086682,0.25
268,917.1788810086682,0.21052631578947367
269,917.1788810086682,0.256578947368421
270,919.9763593380617,0.1907894736842105
271,919.9763593380617,0.20394736842105265
272,919.9763593380617,0.21052631578947367
273,919.9763593380617,0.19736842105263153
274,922.7738376674547,0.14473684210526316
275,922.7738376674547,0.1842105263157895
276,922.7738376674547,0.17105263157894735
277,922.7738376674547,0.15131578947368418
278,922.7738376674547,0.17763157894736847
279,922.7738376674547,0.16447368421052633
280,922.7738376674547,0.1907894736842105
281,922.7738376674547,0.1578947368421053
282,925.5713159968477,0.14473684210526316
283,925.5713159968477,0.13815789473684215
284,925.5713159968477,0.13157894736842102
285,928.3687943262412,0.13157894736842102
286,928.3687943262412,0.11842105263157898
287,928.3687943262412,0.125
288,931.1662726556342,0.11184210526315785
289,931.1662726556342,0.11842105263157898
290,933.9637509850277,0.10526315789473684
291,933.9637509850277,0.11184210526315785
292,936.7612293144207,0.11184210526315785
293,936.7612293144207,0.10526315789473684
294,939.5587076438142,0.11842105263157898
295,939.5587076438142,0.11184210526315785
296,942.3561859732072,0.11842105263157898
297,942.3561859732072,0.125
298,942.3561859732072,0.13157894736842102
299,945.1536643026006,0.13815789473684215
300,945.1536643026006,0.15131578947368418
301,945.1536643026006,0.14473684210526316
302,945.1536643026006,0.13157894736842102
303,947.9511426319937,0.17763157894736847
304,947.9511426319937,0.1578947368421053
305,947.9511426319937,0.15131578947368418
306,947.9511426319937,0.17105263157894735
307,947.9511426319937,0.16447368421052633
308,947.9511426319937,0.1842105263157895
309,947.9511426319937,0.19736842105263153
310,947.9511426319937,0.1907894736842105
311,947.9511426319937,0.20394736842105265
312,947.9511426319937,0.21052631578947367
313,950.7486209613871,0.2171052631578947
314,950.7486209613871,0.26315789473684215
315,950.7486209613871,0.256578947368421
316,950.7486209613871,0.24342105263157898
317,950.7486209613871,0.21052631578947367
318,950.7486209613871,0.23684210526315785
319,950.7486209613871,0.23026315789473684
320,950.7486209613871,0.25
321,950.7486209613871,0.22368421052631582
322,953.5460992907801,0.35526315789473684
323,953.5460992907801,0.4144736842105263
324,953.5460992907801,0.3486842105263158
325,953.5460992907801,0.3223684210526315
326,953.5460992907801,0.3092105263157895
327,953.5460992907801,0.4276315789473685
328,953.5460992907801,0.3026315789473685
329,953.5460992907801,0.32894736842105265
330,953.5460992907801,0.4342105263157895
331,953.5460992907801,0.3421052631578947
332,953.5460992907801,0.4407894736842105
333,953.5460992907801,0.4473684210526315
334,953.5460992907801,0.45394736842105265
335,953.5460992907801,0.3157894736842105
336,953.5460992907801,0.2894736842105263
337,953.5460992907801,0.4078947368421053
338,953.5460992907801,0.42105263157894735
339,953.5460992907801,0.4013157894736842
340,953.5460992907801,0.2763157894736842
341,953.5460992907801,0.368421052631579
342,953.5460992907801,0.2828947368421053
343,953.5460992907801,0.26973684210526316
344,953.5460992907801,0.375
345,953.5460992907801,0.29605263157894735
346,953.5460992907801,0.36184210526315785
347,953.5460992907801,0.26315789473684215
348,953.5460992907801,0.381578947368421
349,953.5460992907801,0.38815789473684215
350,953.5460992907801,0.3355263157894737
351,953.5460992907801,0.39473684210526316
352,956.3435776201732,0.4736842105263158
353,956.3435776201732,0.48026315789473684
354,956.3435776201732,0.48684210526315785
355,956.3435776201732,0.4671052631578947
356,956.3435776201732,0.5789473684210527
357,956.3435776201732,0.4605263157894737
358,956.3435776201732,0.5921052631578947
359,956.3435776201732,0.5855263157894737
360,956.3435776201732,0.611842105263158
361,956.3435776201732,0.5592105263157895
362,956.3435776201732,0.5986842105263157
363,956.3435776201732,0.5526315789473684
364,956.3435776201732,0.6052631578947368
365,956.3435776201732,0.45394736842105265
366,956.3435776201732,0.493421052631579
367,956.3435776201732,0.5460526315789473
368,956.3435776201732,0.5
369,956.3435776201732,0.506578947368421
370,956.3435776201732,0.5394736842105263
371,956.3435776201732,0.5197368421052632
372,956.3435776201732,0.5723684210526316
373,956.3435776201732,0.513157894736842
374,956.3435776201732,0.5657894736842105
375,956.3435776201732,0.5328947368421053
376,956.3435776201732,0.5263157894736843
377,959.1410559495666,0.6842105263157895
378,959.1410559495666,0.611842105263158
379,959.1410559495666,0.6513157894736843
380,959.1410559495666,0.7697368421052632
381,959.1410559495666,0.743421052631579
382,959.1410559495666,0.6710526315789473
383,959.1410559495666,0.736842105263158
384,959.1410559495666,0.7105263157894737
385,959.1410559495666,0.6447368421052632
386,959.1410559495666,0.7631578947368421
387,959.1410559495666,0.7039473684210527
388,959.1410559495666,0.6907894736842105
389,959.1410559495666,0.6644736842105263
390,959.1410559495666,0.756578947368421
391,959.1410559495666,0.631578947368421
392,959.1410559495666,0.6973684210526316
393,959.1410559495666,0.7236842105263157
394,959.1410559495666,0.625
395,959.1410559495666,0.7171052631578947
396,959.1410559495666,0.75
397,959.1410559495666,0.638157894736842
398,959.1410559495666,0.618421052631579
399,959.1410559495666,0.7763157894736842
400,959.1410559495666,0.6776315789473684
401,959.1410559495666,0.6578947368421053
402,959.1410559495666,0.7302631578947368
403,961.9385342789597,0.9407894736842105
404,961.9385342789597,0.9539473684210527
405,961.9385342789597,0.8026315789473684
406,961.9385342789597,0.9276315789473684
407,961.9385342789597,0.7960526315789473
408,961.9385342789597,0.993421052631579
409,961.9385342789597,0.9342105263157895
410,961.9385342789597,0.8881578947368421
411,961.9385342789597,0.8947368421052632
412,961.9385342789597,0.9210526315789473
413,961.9385342789597,0.9013157894736842
414,961.9385342789597,0.9078947368421053
415,961.9385342789597,0.9144736842105263
416,961.9385342789597,0.7763157894736842
417,961.9385342789597,0.7894736842105263
418,961.9385342789597,1.0
419,961.9385342789597,0.881578947368421
420,961.9385342789597,0.9473684210526316
421,961.9385342789597,0.7828947368421053
422,961.9385342789597,0.8552631578947368
423,961.9385342789597,0.9802631578947368
424,961.9385342789597,0.9736842105263158
425,961.9385342789597,0.8486842105263158
426,961.9385342789597,0.8223684210526316
427,961.9385342789597,0.8157894736842105
428,961.9385342789597,0.9868421052631579
429,961.9385342789597,0.9671052631578947
430,961.9385342789597,0.9605263157894737
431,961.9385342789597,0.8618421052631579
432,961.9385342789597,0.8092105263157895
433,961.9385342789597,0.8421052631578947
434,961.9385342789597,0.8355263157894737
435,961.9385342789597,0.8289473684210527
436,961.9385342789597,0.875
437,961.9385342789597,0.868421052631579
438,964.7360126083531,1.0
439,964.7360126083531,0.9868421052631579
440,964.7360126083531,0.993421052631579
441,967.5334909377461,0.9736842105263158
442,967.5334909377461,0.9276315789473684
443,967.5334909377461,0.8881578947368421
444,967.5334909377461,0.9210526315789473
445,967.5334909377461,0.9013157894736842
446,967.5334909377461,0.9802631578947368
447,967.5334909377461,0.8552631578947368
448,967.5334909377461,0.8486842105263158
449,967.5334909377461,0.9078947368421053
450,967.5334909377461,0.8223684210526316
451,967.5334909377461,0.9144736842105263
452,967.5334909377461,0.7894736842105263
453,967.5334909377461,0.8421052631578947
454,967.5334909377461,0.8355263157894737
455,967.5334909377461,0.8947368421052632
456,967.5334909377461,0.8289473684210527
457,967.5334909377461,0.8157894736842105
458,967.5334909377461,0.8092105263157895
459,967.5334909377461,0.881578947368421
460,967.5334909377461,0.9342105263157895
461,967.5334909377461,0.9671052631578947
462,967.5334909377461,0.7960526315789473
463,967.5334909377461,0.8618421052631579
464,967.5334909377461,0.8026315789473684
465,967.5334909377461,0.9407894736842105
466,967.5334909377461,0.9605263157894737
467,967.5334909377461,0.868421052631579
468,967.5334909377461,0.875
469,967.5334909377461,0.9539473684210527
470,967.5334909377461,0.9473684210526316
471,967.5334909377461,0.9868421052631579
472,970.3309692671396,0.743421052631579
473,970.3309692671396,0.7236842105263157
474,970.3309692671396,0.6842105263157895
