,wavenumbers,absorbance
0,452.797478329393,0.019736842105263164
1,455.5949566587865,0.019736842105263164
2,458.3924349881795,0.019736842105263164
3,461.189913317573,0.019736842105263164
4,461.189913317573,0.02631578947368418
5,463.987391646966,0.02631578947368418
6,463.987391646966,0.019736842105263164
7,466.78486997635946,0.019736842105263164
8,466.78486997635946,0.02631578947368418
9,469.5823483057525,0.02631578947368418
10,472.37982663514595,0.02631578947368418
11,475.17730496453896,0.02631578947368418
12,477.97478329393243,0.02631578947368418
13,480.77226162332545,0.02631578947368418
14,483.56973995271846,0.02631578947368418
15,483.56973995271846,0.019736842105263164
16,486.36721828211193,0.019736842105263164
17,489.16469661150495,0.019736842105263164
18,491.9621749408984,0.019736842105263164
19,494.75965327029144,0.019736842105263164
20,497.5571315996849,0.019736842105263164
21,500.3546099290779,0.019736842105263164
22,503.1520882584714,0.019736842105263164
23,505.9495665878644,0.019736842105263164
24,508.7470449172579,0.019736842105263164
25,511.5445232466509,0.019736842105263164
26,514.3420015760439,0.019736842105263164
27,517.1394799054374,0.02631578947368418
28,517.1394799054374,0.019736842105263164
29,519.9369582348304,0.02631578947368418
30,522.7344365642239,0.03289473684210531
31,522.7344365642239,0.02631578947368418
32,525.5319148936169,0.03289473684210531
33,528.3293932230104,0.03289473684210531
34,531.1268715524034,0.03947368421052633
35,531.1268715524034,0.03289473684210531
36,533.9243498817968,0.03947368421052633
37,536.7218282111899,0.03947368421052633
38,539.5193065405833,0.03947368421052633
39,542.3167848699763,0.03947368421052633
40,545.1142631993694,0.03947368421052633
41,545.1142631993694,0.03289473684210531
42,547.9117415287628,0.03289473684210531
43,550.7092198581558,0.03289473684210531
44,553.5066981875493,0.03289473684210531
45,556.3041765169423,0.03947368421052633
46,556.3041765169423,0.03289473684210531
47,559.1016548463358,0.03289473684210531
48,561.8991331757288,0.03289473684210531
49,564.6966115051223,0.03289473684210531
50,567.4940898345153,0.03289473684210531
51,567.4940898345153,0.02631578947368418
52,570.2915681639088,0.02631578947368418
53,573.0890464933018,0.02631578947368418
54,575.8865248226948,0.02631578947368418
55,575.8865248226948,0.019736842105263164
56,578.6840031520883,0.019736842105263164
57,581.4814814814813,0.019736842105263164
58,584.2789598108748,0.019736842105263164
59,587.0764381402678,0.019736842105263164
60,589.8739164696613,0.019736842105263164
61,592.6713947990543,0.019736842105263164
62,595.4688731284477,0.019736842105263164
63,595.4688731284477,0.02631578947368418
64,598.2663514578408,0.02631578947368418
65,601.0638297872342,0.02631578947368418
66,603.8613081166272,0.02631578947368418
67,606.6587864460207,0.019736842105263164
68,606.6587864460207,0.02631578947368418
69,609.4562647754137,0.019736842105263164
70,612.2537431048067,0.019736842105263164
71,615.0512214342002,0.019736842105263164
72,617.8486997635932,0.019736842105263164
73,620.6461780929867,0.02631578947368418
74,620.6461780929867,0.019736842105263164
75,620.6461780929867,0.03289473684210531
76,623.4436564223797,0.03289473684210531
77,626.2411347517732,0.03947368421052633
78,626.2411347517732,0.03289473684210531
79,629.0386130811662,0.03289473684210531
80,631.8360914105597,0.02631578947368418
81,631.8360914105597,0.03289473684210531
82,634.6335697399527,0.02631578947368418
83,637.4310480693462,0.02631578947368418
84,640.2285263987392,0.02631578947368418
85,643.0260047281322,0.02631578947368418
86,643.0260047281322,0.03289473684210531
87,645.8234830575257,0.03289473684210531
88,648.6209613869187,0.03947368421052633
89,648.6209613869187,0.03289473684210531
90,651.4184397163122,0.03947368421052633
91,654.2159180457052,0.03947368421052633
92,654.2159180457052,0.046052631578947345
93,657.0133963750986,0.046052631578947345
94,659.8108747044917,0.046052631578947345
95,662.6083530338851,0.046052631578947345
96,662.6083530338851,0.03947368421052633
97,665.4058313632781,0.03947368421052633
98,665.4058313632781,0.02631578947368418
99,665.4058313632781,0.03289473684210531
100,665.4058313632781,0.046052631578947345
101,668.2033096926716,0.02631578947368418
102,671.0007880220646,0.019736842105263164
103,671.0007880220646,0.02631578947368418
104,673.7982663514576,0.019736842105263164
105,676.5957446808511,0.019736842105263164
106,679.3932230102441,0.019736842105263164
107,682.1907013396376,0.02631578947368418
108,682.1907013396376,0.019736842105263164
109,684.9881796690306,0.02631578947368418
110,687.7856579984241,0.02631578947368418
111,690.5831363278171,0.02631578947368418
112,693.3806146572106,0.03289473684210531
113,693.3806146572106,0.02631578947368418
114,696.1780929866036,0.03289473684210531
115,698.9755713159971,0.03947368421052633
116,698.9755713159971,0.03289473684210531
117,701.7730496453901,0.046052631578947345
118,701.7730496453901,0.03947368421052633
119,704.5705279747831,0.046052631578947345
120,707.3680063041766,0.046052631578947345
121,710.1654846335696,0.046052631578947345
122,712.962962962963,0.052631578947368474
123,712.962962962963,0.046052631578947345
124,715.7604412923561,0.052631578947368474
125,718.5579196217495,0.03947368421052633
126,718.5579196217495,0.046052631578947345
127,718.5579196217495,0.052631578947368474
128,721.3553979511425,0.03289473684210531
129,721.3553979511425,0.03947368421052633
130,724.152876280536,0.02631578947368418
131,724.152876280536,0.03289473684210531
132,726.950354609929,0.02631578947368418
133,729.7478329393225,0.02631578947368418
134,729.7478329393225,0.019736842105263164
135,732.5453112687155,0.019736842105263164
136,735.3427895981085,0.02631578947368418
137,735.3427895981085,0.019736842105263164
138,738.140267927502,0.02631578947368418
139,740.937746256895,0.03289473684210531
140,740.937746256895,0.02631578947368418
141,743.7352245862885,0.03289473684210531
142,746.5327029156815,0.03289473684210531
143,749.330181245075,0.03289473684210531
144,749.330181245075,0.02631578947368418
145,752.127659574468,0.02631578947368418
146,754.9251379038615,0.02631578947368418
147,757.7226162332545,0.02631578947368418
148,760.520094562648,0.02631578947368418
149,763.317572892041,0.02631578947368418
150,766.115051221434,0.02631578947368418
151,768.9125295508275,0.02631578947368418
152,771.7100078802205,0.02631578947368418
153,774.507486209614,0.02631578947368418
154,777.304964539007,0.02631578947368418
155,780.1024428684004,0.02631578947368418
156,780.1024428684004,0.03289473684210531
157,782.8999211977934,0.03289473684210531
158,785.6973995271869,0.03289473684210531
159,788.4948778565799,0.03289473684210531
160,791.2923561859734,0.03289473684210531
161,794.0898345153664,0.03289473684210531
162,796.8873128447594,0.03289473684210531
163,799.6847911741529,0.03289473684210531
164,802.4822695035459,0.03289473684210531
165,805.2797478329394,0.03289473684210531
166,805.2797478329394,0.03947368421052633
167,808.0772261623324,0.03947368421052633
168,808.0772261623324,0.046052631578947345
169,810.8747044917259,0.052631578947368474
170,810.8747044917259,0.06578947368421051
171,810.8747044917259,0.05921052631578949
172,813.6721828211189,0.06578947368421051
173,813.6721828211189,0.08552631578947367
174,813.6721828211189,0.07236842105263153
175,813.6721828211189,0.07894736842105265
176,813.6721828211189,0.09210526315789469
177,816.4696611505124,0.09210526315789469
178,816.4696611505124,0.10526315789473684
179,816.4696611505124,0.11184210526315785
180,816.4696611505124,0.09868421052631582
181,819.2671394799054,0.09210526315789469
182,819.2671394799054,0.11184210526315785
183,819.2671394799054,0.10526315789473684
184,819.2671394799054,0.09868421052631582
185,822.0646178092989,0.07894736842105265
186,822.0646178092989,0.09210526315789469
187,822.0646178092989,0.08552631578947367
188,824.8620961386919,0.07894736842105265
189,824.8620961386919,0.07236842105263153
190,827.6595744680849,0.06578947368421051
191,827.6595744680849,0.07236842105263153
192,830.4570527974784,0.05921052631578949
193,830.4570527974784,0.052631578947368474
194,830.4570527974784,0.06578947368421051
195,833.2545311268714,0.052631578947368474
196,836.0520094562648,0.052631578947368474
197,836.0520094562648,0.046052631578947345
198,838.8494877856579,0.046052631578947345
199,841.6469661150513,0.046052631578947345
200,844.4444444444443,0.046052631578947345
201,847.2419227738378,0.046052631578947345
202,850.0394011032308,0.052631578947368474
203,850.0394011032308,0.046052631578947345
204,850.0394011032308,0.05921052631578949
205,852.8368794326243,0.05921052631578949
206,855.6343577620173,0.06578947368421051
207,855.6343577620173,0.05921052631578949
208,858.4318360914103,0.06578947368421051
209,861.2293144208038,0.06578947368421051
210,864.0267927501968,0.06578947368421051
211,866.8242710795903,0.07236842105263153
212,866.8242710795903,0.06578947368421051
213,869.6217494089833,0.07236842105263153
214,869.6217494089833,0.07894736842105265
215,872.4192277383768,0.08552631578947367
216,872.4192277383768,0.07894736842105265
217,875.2167060677698,0.10526315789473684
218,875.2167060677698,0.09868421052631582
219,875.2167060677698,0.09210526315789469
220,875.2167060677698,0.08552631578947367
221,878.0141843971633,0.11184210526315785
222,878.0141843971633,0.10526315789473684
223,878.0141843971633,0.11842105263157898
224,880.8116627265563,0.11842105263157898
225,880.8116627265563,0.11184210526315785
226,883.6091410559497,0.10526315789473684
227,883.6091410559497,0.11184210526315785
228,886.4066193853428,0.10526315789473684
229,889.2040977147362,0.10526315789473684
230,892.0015760441293,0.10526315789473684
231,894.7990543735223,0.09868421052631582
232,894.7990543735223,0.10526315789473684
233,897.5965327029157,0.09868421052631582
234,900.3940110323088,0.09868421052631582
235,900.3940110323088,0.10526315789473684
236,903.1914893617022,0.11184210526315785
237,903.1914893617022,0.10526315789473684
238,905.9889676910952,0.11184210526315785
239,905.9889676910952,0.10526315789473684
240,908.7864460204887,0.10526315789473684
241,911.5839243498817,0.10526315789473684
242,911.5839243498817,0.09868421052631582
243,914.3814026792752,0.09868421052631582
244,917.1788810086682,0.09210526315789469
245,917.1788810086682,0.09868421052631582
246,919.9763593380617,0.09210526315789469
247,922.7738376674547,0.09210526315789469
248,925.5713159968477,0.09210526315789469
249,928.3687943262412,0.09210526315789469
250,931.1662726556342,0.09210526315789469
251,933.9637509850277,0.09210526315789469
252,936.7612293144207,0.09868421052631582
253,936.7612293144207,0.09210526315789469
254,939.5587076438142,0.09868421052631582
255,942.3561859732072,0.09868421052631582
256,942.3561859732072,0.10526315789473684
257,945.1536643026006,0.10526315789473684
258,947.9511426319937,0.10526315789473684
259,950.7486209613871,0.10526315789473684
260,953.5460992907801,0.10526315789473684
261,956.3435776201732,0.10526315789473684
262,959.1410559495666,0.10526315789473684
263,961.9385342789597,0.11184210526315785
264,961.9385342789597,0.10526315789473684
265,964.7360126083531,0.11184210526315785
266,967.5334909377461,0.11184210526315785
267,967.5334909377461,0.10526315789473684
268,970.3309692671396,0.10526315789473684
269,973.1284475965326,0.10526315789473684
270,975.9259259259261,0.10526315789473684
271,975.9259259259261,0.09868421052631582
272,978.7234042553191,0.08552631578947367
273,978.7234042553191,0.09868421052631582
274,978.7234042553191,0.09210526315789469
275,981.5208825847126,0.08552631578947367
276,981.5208825847126,0.07894736842105265
277,984.3183609141056,0.07894736842105265
278,987.1158392434986,0.07894736842105265
279,987.1158392434986,0.09210526315789469
280,987.1158392434986,0.08552631578947367
281,989.9133175728921,0.09868421052631582
282,989.9133175728921,0.09210526315789469
283,992.7107959022851,0.10526315789473684
284,992.7107959022851,0.09868421052631582
285,995.5082742316786,0.10526315789473684
286,995.5082742316786,0.09868421052631582
287,998.3057525610716,0.09868421052631582
288,1001.103230890465,0.09868421052631582
289,1003.9007092198581,0.09868421052631582
290,1006.6981875492515,0.10526315789473684
291,1006.6981875492515,0.09868421052631582
292,1009.4956658786446,0.10526315789473684
293,1012.293144208038,0.10526315789473684
294,1015.090622537431,0.10526315789473684
295,1017.8881008668241,0.10526315789473684
296,1017.8881008668241,0.11184210526315785
297,1020.6855791962175,0.11184210526315785
298,1020.6855791962175,0.11842105263157898
299,1023.4830575256105,0.11842105263157898
300,1026.280535855004,0.11842105263157898
301,1029.078014184397,0.11842105263157898
302,1029.078014184397,0.125
303,1029.078014184397,0.13815789473684215
304,1029.078014184397,0.13157894736842102
305,1031.8754925137905,0.14473684210526316
306,1031.8754925137905,0.13815789473684215
307,1034.6729708431835,0.13815789473684215
308,1034.6729708431835,0.13157894736842102
309,1034.6729708431835,0.14473684210526316
310,1037.470449172577,0.13157894736842102
311,1037.470449172577,0.125
312,1040.26792750197,0.11842105263157898
313,1040.26792750197,0.125
314,1040.26792750197,0.11184210526315785
315,1043.0654058313635,0.11184210526315785
316,1045.8628841607565,0.11184210526315785
317,1048.6603624901495,0.11184210526315785
318,1051.457840819543,0.11184210526315785
319,1051.457840819543,0.11842105263157898
320,1054.255319148936,0.125
321,1054.255319148936,0.11842105263157898
322,1057.0527974783295,0.125
323,1057.0527974783295,0.11842105263157898
324,1059.8502758077225,0.11184210526315785
325,1059.8502758077225,0.11842105263157898
326,1062.647754137116,0.11184210526315785
327,1065.445232466509,0.10526315789473684
328,1065.445232466509,0.11184210526315785
329,1068.2427107959024,0.10526315789473684
330,1068.2427107959024,0.11184210526315785
331,1068.2427107959024,0.11842105263157898
332,1071.0401891252955,0.11842105263157898
333,1073.837667454689,0.11842105263157898
334,1076.635145784082,0.125
335,1076.635145784082,0.11842105263157898
336,1079.432624113475,0.11842105263157898
337,1079.432624113475,0.125
338,1082.2301024428684,0.11842105263157898
339,1085.0275807722614,0.13157894736842102
340,1085.0275807722614,0.125
341,1085.0275807722614,0.11842105263157898
342,1087.825059101655,0.13157894736842102
343,1087.825059101655,0.13815789473684215
344,1090.622537431048,0.15131578947368418
345,1090.622537431048,0.14473684210526316
346,1090.622537431048,0.13815789473684215
347,1093.4200157604414,0.15131578947368418
348,1093.4200157604414,0.1578947368421053
349,1093.4200157604414,0.16447368421052633
350,1096.2174940898344,0.17763157894736847
351,1096.2174940898344,0.1907894736842105
352,1096.2174940898344,0.16447368421052633
353,1096.2174940898344,0.1842105263157895
354,1096.2174940898344,0.19736842105263153
355,1096.2174940898344,0.17105263157894735
356,1099.014972419228,0.20394736842105265
357,1099.014972419228,0.21052631578947367
358,1099.014972419228,0.19736842105263153
359,1101.812450748621,0.2171052631578947
360,1101.812450748621,0.21052631578947367
361,1104.6099290780144,0.20394736842105265
362,1104.6099290780144,0.2171052631578947
363,1104.6099290780144,0.21052631578947367
364,1107.4074074074074,0.1907894736842105
365,1107.4074074074074,0.19736842105263153
366,1107.4074074074074,0.20394736842105265
367,1110.2048857368004,0.1907894736842105
368,1110.2048857368004,0.1842105263157895
369,1110.2048857368004,0.17763157894736847
370,1113.0023640661939,0.17763157894736847
371,1113.0023640661939,0.1842105263157895
372,1115.799842395587,0.1907894736842105
373,1115.799842395587,0.19736842105263153
374,1115.799842395587,0.21052631578947367
375,1115.799842395587,0.20394736842105265
376,1115.799842395587,0.1842105263157895
377,1118.5973207249804,0.2171052631578947
378,1118.5973207249804,0.21052631578947367
379,1121.3947990543734,0.22368421052631582
380,1121.3947990543734,0.2171052631578947
381,1124.1922773837669,0.22368421052631582
382,1126.9897557131599,0.2171052631578947
383,1126.9897557131599,0.22368421052631582
384,1129.7872340425533,0.2171052631578947
385,1129.7872340425533,0.21052631578947367
386,1132.5847123719464,0.20394736842105265
387,1132.5847123719464,0.21052631578947367
388,1135.3821907013398,0.20394736842105265
389,1135.3821907013398,0.19736842105263153
390,1138.1796690307328,0.19736842105263153
391,1140.9771473601263,0.19736842105263153
392,1143.7746256895193,0.19736842105263153
393,1146.5721040189123,0.1907894736842105
394,1146.5721040189123,0.19736842105263153
395,1149.3695823483058,0.1907894736842105
396,1152.1670606776988,0.1907894736842105
397,1152.1670606776988,0.17763157894736847
398,1152.1670606776988,0.1842105263157895
399,1154.9645390070923,0.17763157894736847
400,1157.7620173364853,0.17763157894736847
401,1160.5594956658788,0.17763157894736847
402,1160.5594956658788,0.1907894736842105
403,1160.5594956658788,0.19736842105263153
404,1160.5594956658788,0.1842105263157895
405,1163.3569739952718,0.20394736842105265
406,1163.3569739952718,0.19736842105263153
407,1163.3569739952718,0.21052631578947367
408,1166.1544523246653,0.22368421052631582
409,1166.1544523246653,0.2171052631578947
410,1166.1544523246653,0.21052631578947367
411,1168.9519306540583,0.22368421052631582
412,1171.7494089834518,0.2171052631578947
413,1171.7494089834518,0.22368421052631582
414,1174.5468873128448,0.2171052631578947
415,1177.3443656422378,0.2171052631578947
416,1180.1418439716313,0.2171052631578947
417,1180.1418439716313,0.21052631578947367
418,1182.9393223010243,0.21052631578947367
419,1182.9393223010243,0.20394736842105265
420,1185.7368006304177,0.19736842105263153
421,1185.7368006304177,0.20394736842105265
422,1188.5342789598108,0.1842105263157895
423,1188.5342789598108,0.19736842105263153
424,1188.5342789598108,0.1907894736842105
425,1191.3317572892042,0.1842105263157895
426,1191.3317572892042,0.15131578947368418
427,1191.3317572892042,0.16447368421052633
428,1191.3317572892042,0.17763157894736847
429,1191.3317572892042,0.17105263157894735
430,1191.3317572892042,0.1578947368421053
431,1194.1292356185972,0.14473684210526316
432,1194.1292356185972,0.15131578947368418
433,1196.9267139479907,0.13815789473684215
434,1196.9267139479907,0.14473684210526316
435,1199.7241922773837,0.13815789473684215
436,1202.5216706067772,0.15131578947368418
437,1202.5216706067772,0.14473684210526316
438,1202.5216706067772,0.13815789473684215
439,1205.3191489361702,0.15131578947368418
440,1208.1166272655632,0.16447368421052633
441,1208.1166272655632,0.15131578947368418
442,1208.1166272655632,0.1578947368421053
443,1210.9141055949567,0.17105263157894735
444,1210.9141055949567,0.16447368421052633
445,1213.7115839243497,0.1842105263157895
446,1213.7115839243497,0.17105263157894735
447,1213.7115839243497,0.17763157894736847
448,1216.5090622537432,0.20394736842105265
449,1216.5090622537432,0.1907894736842105
450,1216.5090622537432,0.19736842105263153
451,1216.5090622537432,0.1842105263157895
452,1219.3065405831362,0.21052631578947367
453,1219.3065405831362,0.20394736842105265
454,1219.3065405831362,0.2171052631578947
455,1222.1040189125297,0.23684210526315785
456,1222.1040189125297,0.22368421052631582
457,1222.1040189125297,0.24342105263157898
458,1222.1040189125297,0.2171052631578947
459,1222.1040189125297,0.23026315789473684
460,1224.9014972419227,0.24342105263157898
461,1224.9014972419227,0.256578947368421
462,1224.9014972419227,0.25
463,1227.6989755713162,0.256578947368421
464,1227.6989755713162,0.26315789473684215
465,1230.4964539007092,0.26315789473684215
