,wavenumbers,absorbance
0,452.797478329393,0.02631578947368418
1,452.797478329393,0.03289473684210531
2,455.5949566587865,0.03947368421052633
3,455.5949566587865,0.03289473684210531
4,458.3924349881795,0.03947368421052633
5,461.189913317573,0.03947368421052633
6,463.987391646966,0.03947368421052633
7,466.78486997635946,0.03947368421052633
8,469.5823483057525,0.03947368421052633
9,472.37982663514595,0.03947368421052633
10,475.17730496453896,0.03947368421052633
11,477.97478329393243,0.03947368421052633
12,480.77226162332545,0.03947368421052633
13,483.56973995271846,0.03947368421052633
14,486.36721828211193,0.03947368421052633
15,486.36721828211193,0.03289473684210531
16,489.16469661150495,0.03289473684210531
17,491.9621749408984,0.02631578947368418
18,491.9621749408984,0.03289473684210531
19,494.75965327029144,0.02631578947368418
20,497.5571315996849,0.02631578947368418
21,497.5571315996849,0.019736842105263164
22,500.3546099290779,0.019736842105263164
23,503.1520882584714,0.019736842105263164
24,505.9495665878644,0.019736842105263164
25,508.7470449172579,0.019736842105263164
26,511.5445232466509,0.019736842105263164
27,514.3420015760439,0.019736842105263164
28,517.1394799054374,0.019736842105263164
29,517.1394799054374,0.02631578947368418
30,519.9369582348304,0.02631578947368418
31,522.7344365642239,0.02631578947368418
32,525.5319148936169,0.02631578947368418
33,528.3293932230104,0.02631578947368418
34,531.1268715524034,0.02631578947368418
35,533.9243498817968,0.02631578947368418
36,536.7218282111899,0.02631578947368418
37,539.5193065405833,0.02631578947368418
38,542.3167848699763,0.02631578947368418
39,545.1142631993694,0.02631578947368418
40,545.1142631993694,0.03289473684210531
41,547.9117415287628,0.03289473684210531
42,550.7092198581558,0.03289473684210531
43,553.5066981875493,0.03947368421052633
44,553.5066981875493,0.03289473684210531
45,556.3041765169423,0.03947368421052633
46,559.1016548463358,0.03947368421052633
47,559.1016548463358,0.046052631578947345
48,561.8991331757288,0.046052631578947345
49,564.6966115051223,0.046052631578947345
50,567.4940898345153,0.046052631578947345
51,570.2915681639088,0.046052631578947345
52,573.0890464933018,0.046052631578947345
53,575.8865248226948,0.03947368421052633
54,575.8865248226948,0.046052631578947345
55,578.6840031520883,0.03947368421052633
56,581.4814814814813,0.03947368421052633
57,581.4814814814813,0.03289473684210531
58,584.2789598108748,0.03289473684210531
59,587.0764381402678,0.03289473684210531
60,589.8739164696613,0.03289473684210531
61,592.6713947990543,0.03289473684210531
62,595.4688731284477,0.02631578947368418
63,595.4688731284477,0.03289473684210531
64,598.2663514578408,0.02631578947368418
65,601.0638297872342,0.02631578947368418
66,603.8613081166272,0.02631578947368418
67,606.6587864460207,0.02631578947368418
68,609.4562647754137,0.02631578947368418
69,612.2537431048067,0.02631578947368418
70,615.0512214342002,0.02631578947368418
71,617.8486997635932,0.02631578947368418
72,620.6461780929867,0.02631578947368418
73,623.4436564223797,0.02631578947368418
74,623.4436564223797,0.019736842105263164
75,626.2411347517732,0.019736842105263164
76,629.0386130811662,0.019736842105263164
77,631.8360914105597,0.019736842105263164
78,634.6335697399527,0.019736842105263164
79,637.4310480693462,0.019736842105263164
80,640.2285263987392,0.019736842105263164
81,643.0260047281322,0.019736842105263164
82,645.8234830575257,0.019736842105263164
83,648.6209613869187,0.019736842105263164
84,651.4184397163122,0.019736842105263164
85,654.2159180457052,0.019736842105263164
86,657.0133963750986,0.019736842105263164
87,659.8108747044917,0.019736842105263164
88,662.6083530338851,0.019736842105263164
89,665.4058313632781,0.019736842105263164
90,668.2033096926716,0.019736842105263164
91,671.0007880220646,0.019736842105263164
92,673.7982663514576,0.019736842105263164
93,676.5957446808511,0.02631578947368418
94,676.5957446808511,0.019736842105263164
95,679.3932230102441,0.02631578947368418
96,682.1907013396376,0.02631578947368418
97,684.9881796690306,0.02631578947368418
98,687.7856579984241,0.02631578947368418
99,690.5831363278171,0.03289473684210531
100,690.5831363278171,0.02631578947368418
101,693.3806146572106,0.03289473684210531
102,696.1780929866036,0.03289473684210531
103,696.1780929866036,0.03947368421052633
104,698.9755713159971,0.046052631578947345
105,698.9755713159971,0.03947368421052633
106,701.7730496453901,0.046052631578947345
107,701.7730496453901,0.052631578947368474
108,704.5705279747831,0.052631578947368474
109,704.5705279747831,0.05921052631578949
110,707.3680063041766,0.08552631578947367
111,707.3680063041766,0.07236842105263153
112,707.3680063041766,0.07894736842105265
113,707.3680063041766,0.06578947368421051
114,707.3680063041766,0.05921052631578949
115,710.1654846335696,0.08552631578947367
116,710.1654846335696,0.09210526315789469
117,710.1654846335696,0.09868421052631582
118,712.962962962963,0.125
119,712.962962962963,0.13157894736842102
120,712.962962962963,0.09868421052631582
121,712.962962962963,0.10526315789473684
122,712.962962962963,0.11184210526315785
123,712.962962962963,0.11842105263157898
124,715.7604412923561,0.13815789473684215
125,715.7604412923561,0.14473684210526316
126,715.7604412923561,0.13157894736842102
127,715.7604412923561,0.15131578947368418
128,718.5579196217495,0.16447368421052633
129,718.5579196217495,0.15131578947368418
130,718.5579196217495,0.1578947368421053
131,718.5579196217495,0.17105263157894735
132,721.3553979511425,0.17763157894736847
133,721.3553979511425,0.17105263157894735
134,724.152876280536,0.17105263157894735
135,724.152876280536,0.17763157894736847
136,726.950354609929,0.17105263157894735
137,726.950354609929,0.16447368421052633
138,729.7478329393225,0.16447368421052633
139,732.5453112687155,0.16447368421052633
140,732.5453112687155,0.1578947368421053
141,735.3427895981085,0.1578947368421053
142,738.140267927502,0.1578947368421053
143,740.937746256895,0.15131578947368418
144,740.937746256895,0.1578947368421053
145,743.7352245862885,0.15131578947368418
146,743.7352245862885,0.14473684210526316
147,746.5327029156815,0.14473684210526316
148,749.330181245075,0.14473684210526316
149,749.330181245075,0.13815789473684215
150,749.330181245075,0.13157894736842102
151,752.127659574468,0.13157894736842102
152,752.127659574468,0.125
153,754.9251379038615,0.125
154,757.7226162332545,0.125
155,757.7226162332545,0.11842105263157898
156,760.520094562648,0.11842105263157898
157,763.317572892041,0.11842105263157898
158,766.115051221434,0.11842105263157898
159,768.9125295508275,0.11842105263157898
160,768.9125295508275,0.125
161,771.7100078802205,0.125
162,771.7100078802205,0.13157894736842102
163,774.507486209614,0.13157894736842102
164,774.507486209614,0.14473684210526316
165,774.507486209614,0.13815789473684215
166,777.304964539007,0.15131578947368418
167,777.304964539007,0.14473684210526316
168,780.1024428684004,0.16447368421052633
169,780.1024428684004,0.1578947368421053
170,780.1024428684004,0.15131578947368418
171,782.8999211977934,0.17105263157894735
172,782.8999211977934,0.16447368421052633
173,785.6973995271869,0.17763157894736847
174,785.6973995271869,0.17105263157894735
175,788.4948778565799,0.1907894736842105
176,788.4948778565799,0.1842105263157895
177,788.4948778565799,0.17763157894736847
178,791.2923561859734,0.1907894736842105
179,794.0898345153664,0.1907894736842105
180,796.8873128447594,0.1842105263157895
181,796.8873128447594,0.1907894736842105
182,799.6847911741529,0.17763157894736847
183,799.6847911741529,0.17105263157894735
184,799.6847911741529,0.1842105263157895
185,802.4822695035459,0.17105263157894735
186,805.2797478329394,0.1907894736842105
187,805.2797478329394,0.17763157894736847
188,805.2797478329394,0.1842105263157895
189,805.2797478329394,0.17105263157894735
190,808.0772261623324,0.1907894736842105
191,808.0772261623324,0.20394736842105265
192,808.0772261623324,0.21052631578947367
193,808.0772261623324,0.19736842105263153
194,810.8747044917259,0.24342105263157898
195,810.8747044917259,0.23026315789473684
196,810.8747044917259,0.22368421052631582
197,810.8747044917259,0.21052631578947367
198,810.8747044917259,0.2171052631578947
199,810.8747044917259,0.23684210526315785
200,813.6721828211189,0.24342105263157898
201,813.6721828211189,0.25
202,813.6721828211189,0.256578947368421
203,816.4696611505124,0.256578947368421
204,816.4696611505124,0.26315789473684215
205,819.2671394799054,0.256578947368421
206,819.2671394799054,0.26315789473684215
207,822.0646178092989,0.25
208,822.0646178092989,0.256578947368421
209,824.8620961386919,0.23684210526315785
210,824.8620961386919,0.24342105263157898
211,824.8620961386919,0.25
212,827.6595744680849,0.23026315789473684
213,827.6595744680849,0.23684210526315785
214,830.4570527974784,0.23026315789473684
215,830.4570527974784,0.22368421052631582
216,833.2545311268714,0.2171052631578947
217,833.2545311268714,0.22368421052631582
218,836.0520094562648,0.21052631578947367
219,836.0520094562648,0.2171052631578947
220,838.8494877856579,0.21052631578947367
221,841.6469661150513,0.21052631578947367
222,841.6469661150513,0.20394736842105265
223,844.4444444444443,0.20394736842105265
224,844.4444444444443,0.19736842105263153
225,847.2419227738378,0.1907894736842105
226,847.2419227738378,0.19736842105263153
227,850.0394011032308,0.1842105263157895
228,850.0394011032308,0.1907894736842105
229,850.0394011032308,0.17763157894736847
230,850.0394011032308,0.1578947368421053
231,850.0394011032308,0.16447368421052633
232,850.0394011032308,0.17105263157894735
233,852.8368794326243,0.14473684210526316
234,852.8368794326243,0.1578947368421053
235,852.8368794326243,0.15131578947368418
236,855.6343577620173,0.14473684210526316
237,855.6343577620173,0.13157894736842102
238,855.6343577620173,0.125
239,855.6343577620173,0.13815789473684215
240,858.4318360914103,0.11842105263157898
241,858.4318360914103,0.125
242,861.2293144208038,0.11842105263157898
243,864.0267927501968,0.11842105263157898
244,866.8242710795903,0.125
245,866.8242710795903,0.11842105263157898
246,869.6217494089833,0.125
247,872.4192277383768,0.13157894736842102
248,872.4192277383768,0.125
249,875.2167060677698,0.13157894736842102
250,878.0141843971633,0.13157894736842102
251,880.8116627265563,0.13815789473684215
252,880.8116627265563,0.13157894736842102
253,883.6091410559497,0.13815789473684215
254,883.6091410559497,0.14473684210526316
255,886.4066193853428,0.14473684210526316
256,889.2040977147362,0.14473684210526316
257,892.0015760441293,0.14473684210526316
258,894.7990543735223,0.14473684210526316
259,897.5965327029157,0.14473684210526316
260,900.3940110323088,0.14473684210526316
261,903.1914893617022,0.14473684210526316
262,905.9889676910952,0.14473684210526316
263,905.9889676910952,0.15131578947368418
264,908.7864460204887,0.15131578947368418
265,911.5839243498817,0.15131578947368418
266,914.3814026792752,0.15131578947368418
267,917.1788810086682,0.15131578947368418
268,917.1788810086682,0.1578947368421053
269,919.9763593380617,0.1578947368421053
270,922.7738376674547,0.1578947368421053
271,925.5713159968477,0.1578947368421053
272,928.3687943262412,0.1578947368421053
273,931.1662726556342,0.1578947368421053
274,933.9637509850277,0.16447368421052633
275,933.9637509850277,0.1578947368421053
276,936.7612293144207,0.16447368421052633
277,939.5587076438142,0.16447368421052633
278,939.5587076438142,0.17105263157894735
279,942.3561859732072,0.17105263157894735
280,945.1536643026006,0.17105263157894735
281,947.9511426319937,0.17105263157894735
282,950.7486209613871,0.17105263157894735
283,953.5460992907801,0.17105263157894735
284,956.3435776201732,0.16447368421052633
285,956.3435776201732,0.17105263157894735
286,959.1410559495666,0.16447368421052633
287,961.9385342789597,0.16447368421052633
288,964.7360126083531,0.16447368421052633
289,964.7360126083531,0.1578947368421053
290,967.5334909377461,0.1578947368421053
291,970.3309692671396,0.1578947368421053
292,973.1284475965326,0.1578947368421053
293,973.1284475965326,0.16447368421052633
294,975.9259259259261,0.16447368421052633
295,978.7234042553191,0.16447368421052633
296,978.7234042553191,0.17105263157894735
297,981.5208825847126,0.17105263157894735
298,984.3183609141056,0.17105263157894735
299,987.1158392434986,0.17105263157894735
300,987.1158392434986,0.17763157894736847
301,989.9133175728921,0.17763157894736847
302,992.7107959022851,0.1842105263157895
303,992.7107959022851,0.17763157894736847
304,995.5082742316786,0.1907894736842105
305,995.5082742316786,0.1842105263157895
306,998.3057525610716,0.1907894736842105
307,998.3057525610716,0.19736842105263153
308,1001.103230890465,0.19736842105263153
309,1001.103230890465,0.20394736842105265
310,1003.9007092198581,0.21052631578947367
311,1003.9007092198581,0.20394736842105265
312,1006.6981875492515,0.21052631578947367
313,1009.4956658786446,0.21052631578947367
314,1012.293144208038,0.21052631578947367
315,1015.090622537431,0.21052631578947367
316,1017.8881008668241,0.21052631578947367
317,1020.6855791962175,0.20394736842105265
318,1020.6855791962175,0.21052631578947367
319,1023.4830575256105,0.19736842105263153
320,1023.4830575256105,0.20394736842105265
321,1026.280535855004,0.1907894736842105
322,1026.280535855004,0.19736842105263153
323,1029.078014184397,0.1842105263157895
324,1029.078014184397,0.1907894736842105
325,1029.078014184397,0.17763157894736847
326,1031.8754925137905,0.17763157894736847
327,1031.8754925137905,0.17105263157894735
328,1034.6729708431835,0.16447368421052633
329,1034.6729708431835,0.17105263157894735
330,1037.470449172577,0.16447368421052633
331,1040.26792750197,0.16447368421052633
332,1043.0654058313635,0.16447368421052633
333,1045.8628841607565,0.16447368421052633
334,1048.6603624901495,0.17105263157894735
335,1048.6603624901495,0.16447368421052633
336,1051.457840819543,0.17763157894736847
337,1051.457840819543,0.17105263157894735
338,1054.255319148936,0.17763157894736847
339,1054.255319148936,0.1842105263157895
340,1057.0527974783295,0.1842105263157895
341,1059.8502758077225,0.1842105263157895
342,1062.647754137116,0.1842105263157895
343,1062.647754137116,0.1907894736842105
344,1065.445232466509,0.19736842105263153
345,1065.445232466509,0.1907894736842105
346,1068.2427107959024,0.19736842105263153
347,1068.2427107959024,0.20394736842105265
348,1071.0401891252955,0.20394736842105265
349,1071.0401891252955,0.21052631578947367
350,1071.0401891252955,0.2171052631578947
351,1073.837667454689,0.22368421052631582
352,1073.837667454689,0.2171052631578947
353,1073.837667454689,0.23026315789473684
354,1076.635145784082,0.23026315789473684
355,1076.635145784082,0.23684210526315785
356,1079.432624113475,0.23684210526315785
357,1079.432624113475,0.26315789473684215
358,1079.432624113475,0.25
359,1079.432624113475,0.24342105263157898
360,1079.432624113475,0.26973684210526316
361,1079.432624113475,0.256578947368421
362,1082.2301024428684,0.2763157894736842
363,1082.2301024428684,0.26973684210526316
364,1082.2301024428684,0.2828947368421053
365,1085.0275807722614,0.3092105263157895
366,1085.0275807722614,0.2894736842105263
367,1085.0275807722614,0.2828947368421053
368,1085.0275807722614,0.3026315789473685
369,1085.0275807722614,0.3157894736842105
370,1085.0275807722614,0.29605263157894735
371,1087.825059101655,0.32894736842105265
372,1087.825059101655,0.3223684210526315
373,1087.825059101655,0.3157894736842105
374,1090.622537431048,0.32894736842105265
375,1090.622537431048,0.3486842105263158
376,1090.622537431048,0.3421052631578947
377,1090.622537431048,0.3355263157894737
378,1093.4200157604414,0.3486842105263158
379,1093.4200157604414,0.35526315789473684
380,1096.2174940898344,0.35526315789473684
381,1096.2174940898344,0.3486842105263158
382,1099.014972419228,0.3486842105263158
383,1099.014972419228,0.3421052631578947
384,1101.812450748621,0.3355263157894737
385,1101.812450748621,0.3421052631578947
386,1104.6099290780144,0.3355263157894737
387,1107.4074074074074,0.3355263157894737
388,1110.2048857368004,0.3421052631578947
389,1110.2048857368004,0.3355263157894737
390,1113.0023640661939,0.3421052631578947
391,1115.799842395587,0.3355263157894737
392,1115.799842395587,0.32894736842105265
393,1115.799842395587,0.3421052631578947
394,1118.5973207249804,0.3157894736842105
395,1118.5973207249804,0.32894736842105265
396,1118.5973207249804,0.3223684210526315
397,1121.3947990543734,0.3157894736842105
398,1124.1922773837669,0.3157894736842105
399,1126.9897557131599,0.3157894736842105
400,1126.9897557131599,0.3223684210526315
401,1129.7872340425533,0.36184210526315785
402,1129.7872340425533,0.3223684210526315
403,1129.7872340425533,0.3486842105263158
404,1129.7872340425533,0.3355263157894737
405,1129.7872340425533,0.3421052631578947
406,1129.7872340425533,0.35526315789473684
407,1129.7872340425533,0.32894736842105265
408,1132.5847123719464,0.36184210526315785
409,1132.5847123719464,0.38815789473684215
410,1132.5847123719464,0.375
411,1132.5847123719464,0.368421052631579
412,1132.5847123719464,0.381578947368421
413,1135.3821907013398,0.4342105263157895
414,1135.3821907013398,0.4276315789473685
415,1135.3821907013398,0.38815789473684215
416,1135.3821907013398,0.42105263157894735
417,1135.3821907013398,0.4013157894736842
418,1135.3821907013398,0.45394736842105265
419,1135.3821907013398,0.4407894736842105
420,1135.3821907013398,0.4144736842105263
421,1135.3821907013398,0.4473684210526315
422,1135.3821907013398,0.4078947368421053
423,1135.3821907013398,0.39473684210526316
424,1138.1796690307328,0.4605263157894737
425,1138.1796690307328,0.48026315789473684
426,1138.1796690307328,0.48684210526315785
427,1138.1796690307328,0.4671052631578947
428,1138.1796690307328,0.45394736842105265
429,1138.1796690307328,0.4736842105263158
430,1140.9771473601263,0.513157894736842
431,1140.9771473601263,0.48684210526315785
432,1140.9771473601263,0.493421052631579
433,1140.9771473601263,0.5328947368421053
434,1140.9771473601263,0.5197368421052632
435,1140.9771473601263,0.506578947368421
436,1140.9771473601263,0.5
437,1140.9771473601263,0.5394736842105263
438,1140.9771473601263,0.5263157894736843
439,1143.7746256895193,0.5394736842105263
440,1143.7746256895193,0.5526315789473684
441,1143.7746256895193,0.5460526315789473
442,1146.5721040189123,0.5592105263157895
443,1146.5721040189123,0.5855263157894737
444,1146.5721040189123,0.5526315789473684
445,1146.5721040189123,0.5723684210526316
446,1146.5721040189123,0.5657894736842105
447,1146.5721040189123,0.5789473684210527
448,1149.3695823483058,0.5921052631578947
449,1149.3695823483058,0.5855263157894737
450,1152.1670606776988,0.6052631578947368
451,1152.1670606776988,0.5921052631578947
452,1152.1670606776988,0.5986842105263157
453,1154.9645390070923,0.6052631578947368
454,1157.7620173364853,0.6052631578947368
455,1160.5594956658788,0.5986842105263157
456,1160.5594956658788,0.6052631578947368
457,1160.5594956658788,0.5921052631578947
458,1163.3569739952718,0.5855263157894737
459,1163.3569739952718,0.5921052631578947
460,1163.3569739952718,0.5789473684210527
461,1166.1544523246653,0.5592105263157895
462,1166.1544523246653,0.5789473684210527
463,1166.1544523246653,0.5723684210526316
464,1166.1544523246653,0.5657894736842105
465,1168.9519306540583,0.5460526315789473
466,1168.9519306540583,0.5526315789473684
467,1168.9519306540583,0.5592105263157895
468,1171.7494089834518,0.5394736842105263
469,1171.7494089834518,0.513157894736842
470,1171.7494089834518,0.5197368421052632
471,1171.7494089834518,0.5460526315789473
472,1171.7494089834518,0.5328947368421053
