,wavenumbers,absorbance
0,452.797478329393,0.03289473684210531
1,455.5949566587865,0.03289473684210531
2,458.3924349881795,0.03289473684210531
3,461.189913317573,0.03289473684210531
4,463.987391646966,0.03289473684210531
5,466.78486997635946,0.03289473684210531
6,469.5823483057525,0.03289473684210531
7,469.5823483057525,0.03947368421052633
8,472.37982663514595,0.03947368421052633
9,475.17730496453896,0.03947368421052633
10,477.97478329393243,0.03947368421052633
11,480.77226162332545,0.03947368421052633
12,483.56973995271846,0.03947368421052633
13,486.36721828211193,0.03947368421052633
14,489.16469661150495,0.03947368421052633
15,491.9621749408984,0.03947368421052633
16,494.75965327029144,0.03947368421052633
17,497.5571315996849,0.03947368421052633
18,500.3546099290779,0.03947368421052633
19,503.1520882584714,0.03947368421052633
20,505.9495665878644,0.03947368421052633
21,508.7470449172579,0.03947368421052633
22,511.5445232466509,0.03947368421052633
23,514.3420015760439,0.03947368421052633
24,517.1394799054374,0.03947368421052633
25,519.9369582348304,0.03947368421052633
26,522.7344365642239,0.03947368421052633
27,525.5319148936169,0.03947368421052633
28,528.3293932230104,0.03947368421052633
29,531.1268715524034,0.03947368421052633
30,533.9243498817968,0.03947368421052633
31,536.7218282111899,0.03947368421052633
32,539.5193065405833,0.03947368421052633
33,542.3167848699763,0.03947368421052633
34,545.1142631993694,0.03947368421052633
35,547.9117415287628,0.03947368421052633
36,550.7092198581558,0.03947368421052633
37,550.7092198581558,0.03289473684210531
38,553.5066981875493,0.03289473684210531
39,556.3041765169423,0.03289473684210531
40,559.1016548463358,0.03289473684210531
41,561.8991331757288,0.03289473684210531
42,564.6966115051223,0.03289473684210531
43,567.4940898345153,0.03289473684210531
44,570.2915681639088,0.03289473684210531
45,573.0890464933018,0.03289473684210531
46,575.8865248226948,0.03289473684210531
47,578.6840031520883,0.03289473684210531
48,581.4814814814813,0.03289473684210531
49,584.2789598108748,0.03289473684210531
50,587.0764381402678,0.03289473684210531
51,589.8739164696613,0.03289473684210531
52,592.6713947990543,0.03289473684210531
53,595.4688731284477,0.03289473684210531
54,598.2663514578408,0.03289473684210531
55,601.0638297872342,0.03289473684210531
56,603.8613081166272,0.03289473684210531
57,606.6587864460207,0.03289473684210531
58,609.4562647754137,0.03289473684210531
59,612.2537431048067,0.03289473684210531
60,615.0512214342002,0.03289473684210531
61,617.8486997635932,0.03289473684210531
62,620.6461780929867,0.03289473684210531
63,623.4436564223797,0.03289473684210531
64,626.2411347517732,0.03289473684210531
65,629.0386130811662,0.03289473684210531
66,631.8360914105597,0.02631578947368418
67,631.8360914105597,0.03289473684210531
68,634.6335697399527,0.02631578947368418
69,637.4310480693462,0.02631578947368418
70,640.2285263987392,0.02631578947368418
71,643.0260047281322,0.02631578947368418
72,645.8234830575257,0.02631578947368418
73,648.6209613869187,0.02631578947368418
74,651.4184397163122,0.02631578947368418
75,651.4184397163122,0.019736842105263164
76,654.2159180457052,0.019736842105263164
77,657.0133963750986,0.019736842105263164
78,659.8108747044917,0.019736842105263164
79,662.6083530338851,0.019736842105263164
80,665.4058313632781,0.019736842105263164
81,668.2033096926716,0.019736842105263164
82,671.0007880220646,0.019736842105263164
83,673.7982663514576,0.019736842105263164
84,676.5957446808511,0.019736842105263164
85,679.3932230102441,0.019736842105263164
86,682.1907013396376,0.019736842105263164
87,684.9881796690306,0.019736842105263164
88,687.7856579984241,0.019736842105263164
89,687.7856579984241,0.02631578947368418
90,690.5831363278171,0.046052631578947345
91,690.5831363278171,0.03289473684210531
92,690.5831363278171,0.02631578947368418
93,690.5831363278171,0.03947368421052633
94,693.3806146572106,0.052631578947368474
95,693.3806146572106,0.06578947368421051
96,693.3806146572106,0.07236842105263153
97,693.3806146572106,0.05921052631578949
98,693.3806146572106,0.046052631578947345
99,693.3806146572106,0.08552631578947367
100,693.3806146572106,0.07894736842105265
101,696.1780929866036,0.08552631578947367
102,696.1780929866036,0.09210526315789469
103,698.9755713159971,0.09210526315789469
104,698.9755713159971,0.06578947368421051
105,698.9755713159971,0.07894736842105265
106,698.9755713159971,0.08552631578947367
107,698.9755713159971,0.07236842105263153
108,701.7730496453901,0.052631578947368474
109,701.7730496453901,0.05921052631578949
110,701.7730496453901,0.06578947368421051
111,704.5705279747831,0.052631578947368474
112,704.5705279747831,0.03947368421052633
113,704.5705279747831,0.046052631578947345
114,707.3680063041766,0.03289473684210531
115,707.3680063041766,0.03947368421052633
116,707.3680063041766,0.02631578947368418
117,710.1654846335696,0.02631578947368418
118,712.962962962963,0.03947368421052633
119,712.962962962963,0.02631578947368418
120,712.962962962963,0.03289473684210531
121,715.7604412923561,0.03947368421052633
122,718.5579196217495,0.03947368421052633
123,721.3553979511425,0.03947368421052633
124,724.152876280536,0.03947368421052633
125,724.152876280536,0.046052631578947345
126,726.950354609929,0.046052631578947345
127,729.7478329393225,0.046052631578947345
128,729.7478329393225,0.03947368421052633
129,732.5453112687155,0.03947368421052633
130,735.3427895981085,0.046052631578947345
131,735.3427895981085,0.03947368421052633
132,738.140267927502,0.052631578947368474
133,738.140267927502,0.046052631578947345
134,740.937746256895,0.052631578947368474
135,743.7352245862885,0.052631578947368474
136,743.7352245862885,0.06578947368421051
137,743.7352245862885,0.05921052631578949
138,746.5327029156815,0.06578947368421051
139,746.5327029156815,0.07236842105263153
140,749.330181245075,0.08552631578947367
141,749.330181245075,0.07894736842105265
142,749.330181245075,0.07236842105263153
143,752.127659574468,0.08552631578947367
144,754.9251379038615,0.09210526315789469
145,754.9251379038615,0.08552631578947367
146,757.7226162332545,0.08552631578947367
147,757.7226162332545,0.09210526315789469
148,760.520094562648,0.08552631578947367
149,763.317572892041,0.07894736842105265
150,763.317572892041,0.08552631578947367
151,766.115051221434,0.07894736842105265
152,768.9125295508275,0.07236842105263153
153,768.9125295508275,0.06578947368421051
154,768.9125295508275,0.07894736842105265
155,771.7100078802205,0.05921052631578949
156,771.7100078802205,0.06578947368421051
157,774.507486209614,0.05921052631578949
158,774.507486209614,0.052631578947368474
159,777.304964539007,0.052631578947368474
160,780.1024428684004,0.052631578947368474
161,780.1024428684004,0.046052631578947345
162,782.8999211977934,0.046052631578947345
163,785.6973995271869,0.046052631578947345
164,788.4948778565799,0.03947368421052633
165,788.4948778565799,0.046052631578947345
166,791.2923561859734,0.03947368421052633
167,794.0898345153664,0.03947368421052633
168,796.8873128447594,0.03947368421052633
169,799.6847911741529,0.03947368421052633
170,799.6847911741529,0.046052631578947345
171,802.4822695035459,0.046052631578947345
172,805.2797478329394,0.046052631578947345
173,808.0772261623324,0.046052631578947345
174,810.8747044917259,0.046052631578947345
175,813.6721828211189,0.046052631578947345
176,816.4696611505124,0.046052631578947345
177,819.2671394799054,0.046052631578947345
178,822.0646178092989,0.046052631578947345
179,824.8620961386919,0.046052631578947345
180,827.6595744680849,0.046052631578947345
181,830.4570527974784,0.052631578947368474
182,830.4570527974784,0.046052631578947345
183,833.2545311268714,0.052631578947368474
184,836.0520094562648,0.06578947368421051
185,836.0520094562648,0.052631578947368474
186,836.0520094562648,0.05921052631578949
187,838.8494877856579,0.06578947368421051
188,841.6469661150513,0.06578947368421051
189,841.6469661150513,0.05921052631578949
190,844.4444444444443,0.05921052631578949
191,847.2419227738378,0.05921052631578949
192,847.2419227738378,0.052631578947368474
193,850.0394011032308,0.052631578947368474
194,852.8368794326243,0.052631578947368474
195,852.8368794326243,0.046052631578947345
196,855.6343577620173,0.046052631578947345
197,858.4318360914103,0.046052631578947345
198,861.2293144208038,0.046052631578947345
199,861.2293144208038,0.03947368421052633
200,864.0267927501968,0.03947368421052633
201,866.8242710795903,0.03947368421052633
202,869.6217494089833,0.03947368421052633
203,872.4192277383768,0.03947368421052633
204,872.4192277383768,0.03289473684210531
205,875.2167060677698,0.03289473684210531
206,878.0141843971633,0.03289473684210531
207,880.8116627265563,0.03289473684210531
208,883.6091410559497,0.03289473684210531
209,886.4066193853428,0.03289473684210531
210,889.2040977147362,0.03289473684210531
211,889.2040977147362,0.03947368421052633
212,892.0015760441293,0.03947368421052633
213,894.7990543735223,0.03947368421052633
214,894.7990543735223,0.046052631578947345
215,897.5965327029157,0.046052631578947345
216,900.3940110323088,0.052631578947368474
217,900.3940110323088,0.046052631578947345
218,903.1914893617022,0.052631578947368474
219,905.9889676910952,0.052631578947368474
220,908.7864460204887,0.052631578947368474
221,911.5839243498817,0.052631578947368474
222,914.3814026792752,0.052631578947368474
223,917.1788810086682,0.052631578947368474
224,919.9763593380617,0.052631578947368474
225,922.7738376674547,0.052631578947368474
226,922.7738376674547,0.05921052631578949
227,925.5713159968477,0.05921052631578949
228,928.3687943262412,0.05921052631578949
229,931.1662726556342,0.06578947368421051
230,931.1662726556342,0.05921052631578949
231,933.9637509850277,0.06578947368421051
232,936.7612293144207,0.07236842105263153
233,936.7612293144207,0.06578947368421051
234,939.5587076438142,0.07236842105263153
235,942.3561859732072,0.07236842105263153
236,942.3561859732072,0.07894736842105265
237,945.1536643026006,0.07894736842105265
238,945.1536643026006,0.08552631578947367
239,947.9511426319937,0.09210526315789469
240,947.9511426319937,0.08552631578947367
241,950.7486209613871,0.09210526315789469
242,953.5460992907801,0.09868421052631582
243,953.5460992907801,0.09210526315789469
244,956.3435776201732,0.09868421052631582
245,959.1410559495666,0.09868421052631582
246,961.9385342789597,0.09868421052631582
247,961.9385342789597,0.09210526315789469
248,964.7360126083531,0.09210526315789469
249,967.5334909377461,0.09210526315789469
250,970.3309692671396,0.09210526315789469
251,973.1284475965326,0.09210526315789469
252,973.1284475965326,0.10526315789473684
253,973.1284475965326,0.09868421052631582
254,975.9259259259261,0.10526315789473684
255,978.7234042553191,0.10526315789473684
256,978.7234042553191,0.11184210526315785
257,981.5208825847126,0.11184210526315785
258,981.5208825847126,0.11842105263157898
259,984.3183609141056,0.11842105263157898
260,987.1158392434986,0.11842105263157898
261,989.9133175728921,0.11842105263157898
262,992.7107959022851,0.10526315789473684
263,992.7107959022851,0.11184210526315785
264,992.7107959022851,0.11842105263157898
265,995.5082742316786,0.10526315789473684
266,995.5082742316786,0.09868421052631582
267,998.3057525610716,0.09868421052631582
268,998.3057525610716,0.09210526315789469
269,998.3057525610716,0.08552631578947367
270,1001.103230890465,0.07894736842105265
271,1001.103230890465,0.08552631578947367
272,1003.9007092198581,0.07236842105263153
273,1003.9007092198581,0.07894736842105265
274,1006.6981875492515,0.07236842105263153
275,1009.4956658786446,0.07236842105263153
276,1012.293144208038,0.07236842105263153
277,1015.090622537431,0.07236842105263153
278,1017.8881008668241,0.07236842105263153
279,1017.8881008668241,0.07894736842105265
280,1020.6855791962175,0.08552631578947367
281,1020.6855791962175,0.07894736842105265
282,1023.4830575256105,0.08552631578947367
283,1026.280535855004,0.08552631578947367
284,1029.078014184397,0.08552631578947367
285,1031.8754925137905,0.08552631578947367
286,1031.8754925137905,0.07894736842105265
287,1034.6729708431835,0.07894736842105265
288,1037.470449172577,0.07894736842105265
289,1040.26792750197,0.07236842105263153
290,1040.26792750197,0.07894736842105265
291,1043.0654058313635,0.07894736842105265
292,1043.0654058313635,0.07236842105263153
293,1045.8628841607565,0.07894736842105265
294,1045.8628841607565,0.07236842105263153
295,1048.6603624901495,0.07894736842105265
296,1048.6603624901495,0.07236842105263153
297,1051.457840819543,0.07894736842105265
298,1054.255319148936,0.08552631578947367
299,1054.255319148936,0.07894736842105265
300,1057.0527974783295,0.08552631578947367
301,1057.0527974783295,0.09210526315789469
302,1059.8502758077225,0.09210526315789469
303,1062.647754137116,0.09210526315789469
304,1065.445232466509,0.09868421052631582
305,1065.445232466509,0.09210526315789469
306,1068.2427107959024,0.09868421052631582
307,1071.0401891252955,0.09868421052631582
308,1073.837667454689,0.10526315789473684
309,1073.837667454689,0.09868421052631582
310,1076.635145784082,0.10526315789473684
311,1079.432624113475,0.10526315789473684
312,1082.2301024428684,0.11184210526315785
313,1082.2301024428684,0.10526315789473684
314,1085.0275807722614,0.11184210526315785
315,1085.0275807722614,0.10526315789473684
316,1087.825059101655,0.11184210526315785
317,1090.622537431048,0.11842105263157898
318,1090.622537431048,0.11184210526315785
319,1093.4200157604414,0.11842105263157898
320,1096.2174940898344,0.125
321,1096.2174940898344,0.13157894736842102
322,1096.2174940898344,0.11842105263157898
323,1099.014972419228,0.13157894736842102
324,1099.014972419228,0.13815789473684215
325,1101.812450748621,0.15131578947368418
326,1101.812450748621,0.13815789473684215
327,1101.812450748621,0.14473684210526316
328,1104.6099290780144,0.17105263157894735
329,1104.6099290780144,0.16447368421052633
330,1104.6099290780144,0.15131578947368418
331,1104.6099290780144,0.1578947368421053
332,1107.4074074074074,0.1842105263157895
333,1107.4074074074074,0.17763157894736847
334,1107.4074074074074,0.17105263157894735
335,1110.2048857368004,0.1907894736842105
336,1110.2048857368004,0.1842105263157895
337,1110.2048857368004,0.19736842105263153
338,1110.2048857368004,0.20394736842105265
339,1113.0023640661939,0.21052631578947367
340,1113.0023640661939,0.20394736842105265
341,1115.799842395587,0.23684210526315785
342,1115.799842395587,0.21052631578947367
343,1115.799842395587,0.22368421052631582
344,1115.799842395587,0.23026315789473684
345,1115.799842395587,0.2171052631578947
346,1118.5973207249804,0.23684210526315785
347,1118.5973207249804,0.24342105263157898
348,1121.3947990543734,0.26973684210526316
349,1121.3947990543734,0.26315789473684215
350,1121.3947990543734,0.256578947368421
351,1121.3947990543734,0.2763157894736842
352,1121.3947990543734,0.25
353,1121.3947990543734,0.24342105263157898
354,1124.1922773837669,0.2763157894736842
355,1124.1922773837669,0.2828947368421053
356,1124.1922773837669,0.29605263157894735
357,1124.1922773837669,0.2894736842105263
358,1126.9897557131599,0.3026315789473685
359,1126.9897557131599,0.3092105263157895
360,1126.9897557131599,0.29605263157894735
361,1126.9897557131599,0.3157894736842105
362,1129.7872340425533,0.3355263157894737
363,1129.7872340425533,0.3421052631578947
364,1129.7872340425533,0.35526315789473684
365,1129.7872340425533,0.3223684210526315
366,1129.7872340425533,0.3157894736842105
367,1129.7872340425533,0.3486842105263158
368,1129.7872340425533,0.32894736842105265
369,1129.7872340425533,0.36184210526315785
370,1132.5847123719464,0.375
371,1132.5847123719464,0.38815789473684215
372,1132.5847123719464,0.36184210526315785
373,1132.5847123719464,0.381578947368421
374,1132.5847123719464,0.368421052631579
375,1135.3821907013398,0.39473684210526316
376,1135.3821907013398,0.42105263157894735
377,1135.3821907013398,0.4078947368421053
378,1135.3821907013398,0.4013157894736842
379,1135.3821907013398,0.38815789473684215
380,1135.3821907013398,0.4144736842105263
381,1138.1796690307328,0.4276315789473685
382,1138.1796690307328,0.42105263157894735
383,1138.1796690307328,0.4342105263157895
384,1140.9771473601263,0.4407894736842105
385,1140.9771473601263,0.4473684210526315
386,1140.9771473601263,0.45394736842105265
387,1140.9771473601263,0.4342105263157895
388,1140.9771473601263,0.4605263157894737
389,1143.7746256895193,0.4671052631578947
390,1143.7746256895193,0.4605263157894737
391,1146.5721040189123,0.4671052631578947
392,1146.5721040189123,0.4736842105263158
393,1149.3695823483058,0.4736842105263158
394,1149.3695823483058,0.48026315789473684
395,1149.3695823483058,0.48684210526315785
396,1152.1670606776988,0.493421052631579
397,1152.1670606776988,0.48684210526315785
398,1154.9645390070923,0.493421052631579
399,1154.9645390070923,0.506578947368421
400,1154.9645390070923,0.5
401,1157.7620173364853,0.513157894736842
402,1157.7620173364853,0.506578947368421
403,1160.5594956658788,0.513157894736842
404,1160.5594956658788,0.5197368421052632
405,1160.5594956658788,0.5263157894736843
406,1163.3569739952718,0.5263157894736843
407,1166.1544523246653,0.513157894736842
408,1166.1544523246653,0.5197368421052632
409,1166.1544523246653,0.5263157894736843
410,1168.9519306540583,0.513157894736842
411,1168.9519306540583,0.5
412,1168.9519306540583,0.506578947368421
413,1171.7494089834518,0.4605263157894737
414,1171.7494089834518,0.5
415,1171.7494089834518,0.48684210526315785
416,1171.7494089834518,0.48026315789473684
417,1171.7494089834518,0.4736842105263158
418,1171.7494089834518,0.4671052631578947
419,1171.7494089834518,0.493421052631579
420,1174.5468873128448,0.45394736842105265
421,1174.5468873128448,0.4407894736842105
422,1174.5468873128448,0.4473684210526315
423,1174.5468873128448,0.4605263157894737
424,1177.3443656422378,0.42105263157894735
425,1177.3443656422378,0.4078947368421053
426,1177.3443656422378,0.4407894736842105
427,1177.3443656422378,0.4342105263157895
428,1177.3443656422378,0.4276315789473685
429,1177.3443656422378,0.4144736842105263
430,1180.1418439716313,0.4078947368421053
431,1180.1418439716313,0.4013157894736842
432,1180.1418439716313,0.39473684210526316
433,1182.9393223010243,0.38815789473684215
434,1182.9393223010243,0.39473684210526316
435,1185.7368006304177,0.381578947368421
436,1185.7368006304177,0.38815789473684215
437,1188.5342789598108,0.381578947368421
438,1188.5342789598108,0.375
439,1188.5342789598108,0.36184210526315785
440,1188.5342789598108,0.368421052631579
441,1191.3317572892042,0.3486842105263158
442,1191.3317572892042,0.32894736842105265
443,1191.3317572892042,0.3421052631578947
444,1191.3317572892042,0.36184210526315785
445,1191.3317572892042,0.3223684210526315
446,1191.3317572892042,0.35526315789473684
447,1191.3317572892042,0.3355263157894737
448,1194.1292356185972,0.3157894736842105
449,1194.1292356185972,0.3223684210526315
450,1194.1292356185972,0.3026315789473685
451,1194.1292356185972,0.3092105263157895
452,1196.9267139479907,0.3026315789473685
453,1196.9267139479907,0.29605263157894735
454,1196.9267139479907,0.2894736842105263
455,1196.9267139479907,0.2763157894736842
456,1196.9267139479907,0.2828947368421053
457,1199.7241922773837,0.2763157894736842
458,1199.7241922773837,0.26315789473684215
459,1199.7241922773837,0.26973684210526316
460,1202.5216706067772,0.25
461,1202.5216706067772,0.26315789473684215
462,1202.5216706067772,0.256578947368421
463,1202.5216706067772,0.24342105263157898
464,1205.3191489361702,0.24342105263157898
465,1208.1166272655632,0.23684210526315785
466,1208.1166272655632,0.24342105263157898
