,wavenumbers,absorbance
0,452.797478329393,0.07894736842105265
1,452.797478329393,0.08552631578947367
2,455.5949566587865,0.07894736842105265
3,458.3924349881795,0.07236842105263153
4,458.3924349881795,0.07894736842105265
5,461.189913317573,0.07236842105263153
6,463.987391646966,0.07236842105263153
7,466.78486997635946,0.07236842105263153
8,466.78486997635946,0.06578947368421051
9,469.5823483057525,0.06578947368421051
10,472.37982663514595,0.06578947368421051
11,475.17730496453896,0.06578947368421051
12,477.97478329393243,0.06578947368421051
13,480.77226162332545,0.06578947368421051
14,483.56973995271846,0.06578947368421051
15,486.36721828211193,0.06578947368421051
16,489.16469661150495,0.06578947368421051
17,491.9621749408984,0.06578947368421051
18,494.75965327029144,0.06578947368421051
19,497.5571315996849,0.06578947368421051
20,500.3546099290779,0.06578947368421051
21,500.3546099290779,0.07236842105263153
22,503.1520882584714,0.07236842105263153
23,505.9495665878644,0.07236842105263153
24,508.7470449172579,0.07236842105263153
25,511.5445232466509,0.07236842105263153
26,514.3420015760439,0.07236842105263153
27,517.1394799054374,0.07236842105263153
28,519.9369582348304,0.07236842105263153
29,522.7344365642239,0.07236842105263153
30,525.5319148936169,0.07236842105263153
31,528.3293932230104,0.07236842105263153
32,531.1268715524034,0.07236842105263153
33,533.9243498817968,0.07236842105263153
34,536.7218282111899,0.07236842105263153
35,539.5193065405833,0.07236842105263153
36,542.3167848699763,0.07236842105263153
37,545.1142631993694,0.07236842105263153
38,547.9117415287628,0.07236842105263153
39,550.7092198581558,0.07236842105263153
40,553.5066981875493,0.07236842105263153
41,556.3041765169423,0.07236842105263153
42,559.1016548463358,0.07236842105263153
43,561.8991331757288,0.07236842105263153
44,561.8991331757288,0.06578947368421051
45,564.6966115051223,0.06578947368421051
46,567.4940898345153,0.06578947368421051
47,570.2915681639088,0.06578947368421051
48,573.0890464933018,0.06578947368421051
49,575.8865248226948,0.06578947368421051
50,578.6840031520883,0.06578947368421051
51,578.6840031520883,0.05921052631578949
52,581.4814814814813,0.05921052631578949
53,584.2789598108748,0.05921052631578949
54,587.0764381402678,0.05921052631578949
55,589.8739164696613,0.052631578947368474
56,589.8739164696613,0.05921052631578949
57,592.6713947990543,0.052631578947368474
58,595.4688731284477,0.052631578947368474
59,598.2663514578408,0.052631578947368474
60,601.0638297872342,0.052631578947368474
61,601.0638297872342,0.046052631578947345
62,603.8613081166272,0.046052631578947345
63,606.6587864460207,0.046052631578947345
64,609.4562647754137,0.046052631578947345
65,612.2537431048067,0.046052631578947345
66,615.0512214342002,0.046052631578947345
67,617.8486997635932,0.046052631578947345
68,620.6461780929867,0.046052631578947345
69,623.4436564223797,0.046052631578947345
70,626.2411347517732,0.046052631578947345
71,629.0386130811662,0.046052631578947345
72,631.8360914105597,0.046052631578947345
73,634.6335697399527,0.046052631578947345
74,637.4310480693462,0.046052631578947345
75,640.2285263987392,0.046052631578947345
76,643.0260047281322,0.046052631578947345
77,645.8234830575257,0.046052631578947345
78,648.6209613869187,0.046052631578947345
79,651.4184397163122,0.052631578947368474
80,651.4184397163122,0.046052631578947345
81,654.2159180457052,0.052631578947368474
82,657.0133963750986,0.052631578947368474
83,657.0133963750986,0.05921052631578949
84,659.8108747044917,0.05921052631578949
85,662.6083530338851,0.05921052631578949
86,665.4058313632781,0.06578947368421051
87,665.4058313632781,0.05921052631578949
88,668.2033096926716,0.06578947368421051
89,671.0007880220646,0.06578947368421051
90,673.7982663514576,0.06578947368421051
91,676.5957446808511,0.07236842105263153
92,676.5957446808511,0.06578947368421051
93,679.3932230102441,0.07236842105263153
94,682.1907013396376,0.07894736842105265
95,682.1907013396376,0.07236842105263153
96,684.9881796690306,0.07236842105263153
97,684.9881796690306,0.07894736842105265
98,687.7856579984241,0.07236842105263153
99,690.5831363278171,0.07236842105263153
100,693.3806146572106,0.07236842105263153
101,696.1780929866036,0.07236842105263153
102,698.9755713159971,0.07236842105263153
103,701.7730496453901,0.07236842105263153
104,704.5705279747831,0.07236842105263153
105,704.5705279747831,0.06578947368421051
106,707.3680063041766,0.06578947368421051
107,707.3680063041766,0.05921052631578949
108,710.1654846335696,0.05921052631578949
109,712.962962962963,0.052631578947368474
110,712.962962962963,0.05921052631578949
111,715.7604412923561,0.052631578947368474
112,718.5579196217495,0.052631578947368474
113,721.3553979511425,0.052631578947368474
114,724.152876280536,0.052631578947368474
115,724.152876280536,0.05921052631578949
116,726.950354609929,0.05921052631578949
117,729.7478329393225,0.06578947368421051
118,729.7478329393225,0.05921052631578949
119,732.5453112687155,0.06578947368421051
120,732.5453112687155,0.07894736842105265
121,732.5453112687155,0.07236842105263153
122,735.3427895981085,0.08552631578947367
123,735.3427895981085,0.07894736842105265
124,738.140267927502,0.08552631578947367
125,738.140267927502,0.09210526315789469
126,740.937746256895,0.09210526315789469
127,743.7352245862885,0.09210526315789469
128,743.7352245862885,0.09868421052631582
129,743.7352245862885,0.10526315789473684
130,746.5327029156815,0.10526315789473684
131,746.5327029156815,0.11184210526315785
132,749.330181245075,0.11184210526315785
133,749.330181245075,0.11842105263157898
134,749.330181245075,0.125
135,752.127659574468,0.11842105263157898
136,752.127659574468,0.125
137,754.9251379038615,0.11184210526315785
138,754.9251379038615,0.11842105263157898
139,757.7226162332545,0.11184210526315785
140,760.520094562648,0.11184210526315785
141,763.317572892041,0.125
142,763.317572892041,0.11184210526315785
143,763.317572892041,0.11842105263157898
144,766.115051221434,0.125
145,766.115051221434,0.13815789473684215
146,766.115051221434,0.13157894736842102
147,768.9125295508275,0.15131578947368418
148,768.9125295508275,0.13815789473684215
149,768.9125295508275,0.17105263157894735
150,768.9125295508275,0.16447368421052633
151,768.9125295508275,0.14473684210526316
152,768.9125295508275,0.1578947368421053
153,771.7100078802205,0.17105263157894735
154,771.7100078802205,0.17763157894736847
155,771.7100078802205,0.1842105263157895
156,774.507486209614,0.19736842105263153
157,774.507486209614,0.20394736842105265
158,774.507486209614,0.1907894736842105
159,774.507486209614,0.1842105263157895
160,777.304964539007,0.20394736842105265
161,777.304964539007,0.21052631578947367
162,777.304964539007,0.2171052631578947
163,780.1024428684004,0.24342105263157898
164,780.1024428684004,0.23684210526315785
165,780.1024428684004,0.22368421052631582
166,780.1024428684004,0.25
167,780.1024428684004,0.23026315789473684
168,780.1024428684004,0.256578947368421
169,780.1024428684004,0.2171052631578947
170,782.8999211977934,0.2763157894736842
171,782.8999211977934,0.256578947368421
172,782.8999211977934,0.26973684210526316
173,782.8999211977934,0.2828947368421053
174,782.8999211977934,0.26315789473684215
175,782.8999211977934,0.2894736842105263
176,785.6973995271869,0.3223684210526315
177,785.6973995271869,0.3092105263157895
178,785.6973995271869,0.3157894736842105
179,785.6973995271869,0.29605263157894735
180,785.6973995271869,0.2894736842105263
181,785.6973995271869,0.3026315789473685
182,788.4948778565799,0.36184210526315785
183,788.4948778565799,0.32894736842105265
184,788.4948778565799,0.35526315789473684
185,788.4948778565799,0.39473684210526316
186,788.4948778565799,0.381578947368421
187,788.4948778565799,0.38815789473684215
188,788.4948778565799,0.3223684210526315
189,788.4948778565799,0.368421052631579
190,788.4948778565799,0.3355263157894737
191,788.4948778565799,0.4078947368421053
192,788.4948778565799,0.3486842105263158
193,788.4948778565799,0.3421052631578947
194,788.4948778565799,0.4013157894736842
195,788.4948778565799,0.4144736842105263
196,788.4948778565799,0.375
197,791.2923561859734,0.4407894736842105
198,791.2923561859734,0.4605263157894737
199,791.2923561859734,0.4473684210526315
200,791.2923561859734,0.42105263157894735
201,791.2923561859734,0.4144736842105263
202,791.2923561859734,0.4342105263157895
203,791.2923561859734,0.45394736842105265
204,791.2923561859734,0.4276315789473685
205,794.0898345153664,0.5263157894736843
206,794.0898345153664,0.513157894736842
207,794.0898345153664,0.4736842105263158
208,794.0898345153664,0.4605263157894737
209,794.0898345153664,0.493421052631579
210,794.0898345153664,0.4671052631578947
211,794.0898345153664,0.48684210526315785
212,794.0898345153664,0.48026315789473684
213,794.0898345153664,0.506578947368421
214,794.0898345153664,0.5
215,794.0898345153664,0.5197368421052632
216,796.8873128447594,0.5460526315789473
217,796.8873128447594,0.5328947368421053
218,796.8873128447594,0.5526315789473684
219,796.8873128447594,0.5263157894736843
220,796.8873128447594,0.5394736842105263
221,799.6847911741529,0.5526315789473684
222,799.6847911741529,0.5592105263157895
223,802.4822695035459,0.5460526315789473
224,802.4822695035459,0.5526315789473684
225,802.4822695035459,0.5592105263157895
226,805.2797478329394,0.5263157894736843
227,805.2797478329394,0.506578947368421
228,805.2797478329394,0.48684210526315785
229,805.2797478329394,0.5460526315789473
230,805.2797478329394,0.5328947368421053
231,805.2797478329394,0.5197368421052632
232,805.2797478329394,0.513157894736842
233,805.2797478329394,0.5
234,805.2797478329394,0.493421052631579
235,805.2797478329394,0.5394736842105263
236,808.0772261623324,0.48026315789473684
237,808.0772261623324,0.4671052631578947
238,808.0772261623324,0.4605263157894737
239,808.0772261623324,0.4736842105263158
240,808.0772261623324,0.45394736842105265
241,808.0772261623324,0.48684210526315785
242,810.8747044917259,0.4473684210526315
243,810.8747044917259,0.4078947368421053
244,810.8747044917259,0.4407894736842105
245,810.8747044917259,0.45394736842105265
246,810.8747044917259,0.4144736842105263
247,810.8747044917259,0.4013157894736842
248,810.8747044917259,0.4276315789473685
249,810.8747044917259,0.42105263157894735
250,810.8747044917259,0.4342105263157895
251,813.6721828211189,0.381578947368421
252,813.6721828211189,0.375
253,813.6721828211189,0.38815789473684215
254,813.6721828211189,0.39473684210526316
255,813.6721828211189,0.4013157894736842
256,816.4696611505124,0.375
257,816.4696611505124,0.368421052631579
258,816.4696611505124,0.35526315789473684
259,816.4696611505124,0.36184210526315785
260,816.4696611505124,0.3486842105263158
261,819.2671394799054,0.3157894736842105
262,819.2671394799054,0.29605263157894735
263,819.2671394799054,0.3486842105263158
264,819.2671394799054,0.2894736842105263
265,819.2671394799054,0.3092105263157895
266,819.2671394799054,0.3355263157894737
267,819.2671394799054,0.32894736842105265
268,819.2671394799054,0.3421052631578947
269,819.2671394799054,0.3223684210526315
270,819.2671394799054,0.3026315789473685
271,822.0646178092989,0.2894736842105263
272,822.0646178092989,0.2828947368421053
273,822.0646178092989,0.26973684210526316
274,822.0646178092989,0.2763157894736842
275,822.0646178092989,0.26315789473684215
276,824.8620961386919,0.25
277,824.8620961386919,0.256578947368421
278,824.8620961386919,0.26315789473684215
279,824.8620961386919,0.24342105263157898
280,827.6595744680849,0.24342105263157898
281,830.4570527974784,0.25
282,830.4570527974784,0.26315789473684215
283,830.4570527974784,0.24342105263157898
284,830.4570527974784,0.256578947368421
285,833.2545311268714,0.26315789473684215
286,833.2545311268714,0.2763157894736842
287,833.2545311268714,0.26973684210526316
288,833.2545311268714,0.2828947368421053
289,836.0520094562648,0.2894736842105263
290,836.0520094562648,0.29605263157894735
291,836.0520094562648,0.3026315789473685
292,836.0520094562648,0.2828947368421053
293,836.0520094562648,0.3092105263157895
294,838.8494877856579,0.3092105263157895
295,838.8494877856579,0.3157894736842105
296,841.6469661150513,0.3157894736842105
297,841.6469661150513,0.2894736842105263
298,841.6469661150513,0.3026315789473685
299,841.6469661150513,0.29605263157894735
300,841.6469661150513,0.3092105263157895
301,844.4444444444443,0.2828947368421053
302,844.4444444444443,0.2894736842105263
303,844.4444444444443,0.2763157894736842
304,847.2419227738378,0.26315789473684215
305,847.2419227738378,0.26973684210526316
306,847.2419227738378,0.2763157894736842
307,850.0394011032308,0.26315789473684215
308,850.0394011032308,0.25
309,850.0394011032308,0.24342105263157898
310,850.0394011032308,0.256578947368421
311,850.0394011032308,0.23684210526315785
312,852.8368794326243,0.22368421052631582
313,852.8368794326243,0.23026315789473684
314,852.8368794326243,0.23684210526315785
315,855.6343577620173,0.21052631578947367
316,855.6343577620173,0.2171052631578947
317,855.6343577620173,0.22368421052631582
318,858.4318360914103,0.21052631578947367
319,858.4318360914103,0.20394736842105265
320,861.2293144208038,0.20394736842105265
321,861.2293144208038,0.1907894736842105
322,861.2293144208038,0.19736842105263153
323,864.0267927501968,0.1907894736842105
324,864.0267927501968,0.1842105263157895
325,866.8242710795903,0.17763157894736847
326,866.8242710795903,0.1842105263157895
327,866.8242710795903,0.17105263157894735
328,869.6217494089833,0.17105263157894735
329,869.6217494089833,0.16447368421052633
330,872.4192277383768,0.16447368421052633
331,872.4192277383768,0.1578947368421053
332,875.2167060677698,0.1578947368421053
333,875.2167060677698,0.15131578947368418
334,878.0141843971633,0.15131578947368418
335,878.0141843971633,0.14473684210526316
336,880.8116627265563,0.14473684210526316
337,880.8116627265563,0.13815789473684215
338,883.6091410559497,0.13157894736842102
339,883.6091410559497,0.13815789473684215
340,886.4066193853428,0.13157894736842102
341,886.4066193853428,0.125
342,886.4066193853428,0.11842105263157898
343,889.2040977147362,0.11842105263157898
344,889.2040977147362,0.11184210526315785
345,892.0015760441293,0.11184210526315785
346,894.7990543735223,0.11184210526315785
347,897.5965327029157,0.11184210526315785
348,900.3940110323088,0.11184210526315785
349,903.1914893617022,0.11842105263157898
350,903.1914893617022,0.11184210526315785
351,905.9889676910952,0.11842105263157898
352,908.7864460204887,0.11842105263157898
353,908.7864460204887,0.125
354,911.5839243498817,0.125
355,914.3814026792752,0.125
356,917.1788810086682,0.13157894736842102
357,917.1788810086682,0.125
358,919.9763593380617,0.13157894736842102
359,922.7738376674547,0.13157894736842102
360,922.7738376674547,0.13815789473684215
361,925.5713159968477,0.13815789473684215
362,925.5713159968477,0.14473684210526316
363,928.3687943262412,0.15131578947368418
364,928.3687943262412,0.14473684210526316
365,931.1662726556342,0.15131578947368418
366,931.1662726556342,0.1578947368421053
367,933.9637509850277,0.1578947368421053
368,933.9637509850277,0.16447368421052633
369,936.7612293144207,0.16447368421052633
370,936.7612293144207,0.17105263157894735
371,939.5587076438142,0.17105263157894735
372,942.3561859732072,0.17105263157894735
373,942.3561859732072,0.17763157894736847
374,945.1536643026006,0.1842105263157895
375,945.1536643026006,0.17763157894736847
376,947.9511426319937,0.1842105263157895
377,950.7486209613871,0.17763157894736847
378,950.7486209613871,0.1842105263157895
379,953.5460992907801,0.1578947368421053
380,953.5460992907801,0.17105263157894735
381,953.5460992907801,0.16447368421052633
382,953.5460992907801,0.17763157894736847
383,956.3435776201732,0.1578947368421053
384,956.3435776201732,0.14473684210526316
385,956.3435776201732,0.15131578947368418
386,959.1410559495666,0.14473684210526316
387,959.1410559495666,0.13815789473684215
388,959.1410559495666,0.13157894736842102
389,961.9385342789597,0.13157894736842102
390,961.9385342789597,0.125
391,961.9385342789597,0.11842105263157898
392,964.7360126083531,0.11842105263157898
393,967.5334909377461,0.11842105263157898
394,970.3309692671396,0.125
395,970.3309692671396,0.11842105263157898
396,973.1284475965326,0.13157894736842102
397,973.1284475965326,0.125
398,975.9259259259261,0.14473684210526316
399,975.9259259259261,0.13157894736842102
400,975.9259259259261,0.13815789473684215
401,978.7234042553191,0.16447368421052633
402,978.7234042553191,0.14473684210526316
403,978.7234042553191,0.15131578947368418
404,978.7234042553191,0.1578947368421053
405,981.5208825847126,0.17105263157894735
406,981.5208825847126,0.16447368421052633
407,981.5208825847126,0.17763157894736847
408,984.3183609141056,0.1842105263157895
409,984.3183609141056,0.17763157894736847
410,984.3183609141056,0.1907894736842105
411,987.1158392434986,0.19736842105263153
412,987.1158392434986,0.21052631578947367
413,987.1158392434986,0.20394736842105265
414,987.1158392434986,0.1907894736842105
415,989.9133175728921,0.22368421052631582
416,989.9133175728921,0.2171052631578947
417,989.9133175728921,0.21052631578947367
418,992.7107959022851,0.23684210526315785
419,992.7107959022851,0.25
420,992.7107959022851,0.256578947368421
421,992.7107959022851,0.23026315789473684
422,992.7107959022851,0.22368421052631582
423,992.7107959022851,0.24342105263157898
424,995.5082742316786,0.2828947368421053
425,995.5082742316786,0.2763157894736842
426,995.5082742316786,0.256578947368421
427,995.5082742316786,0.26973684210526316
428,995.5082742316786,0.26315789473684215
429,998.3057525610716,0.3421052631578947
430,998.3057525610716,0.3223684210526315
431,998.3057525610716,0.3157894736842105
432,998.3057525610716,0.2828947368421053
433,998.3057525610716,0.3092105263157895
434,998.3057525610716,0.3026315789473685
435,998.3057525610716,0.29605263157894735
436,998.3057525610716,0.32894736842105265
437,998.3057525610716,0.3355263157894737
438,998.3057525610716,0.2894736842105263
439,1001.103230890465,0.35526315789473684
440,1001.103230890465,0.3486842105263158
441,1001.103230890465,0.375
442,1001.103230890465,0.3421052631578947
443,1001.103230890465,0.36184210526315785
444,1001.103230890465,0.368421052631579
445,1003.9007092198581,0.4407894736842105
446,1003.9007092198581,0.4276315789473685
447,1003.9007092198581,0.42105263157894735
448,1003.9007092198581,0.4144736842105263
449,1003.9007092198581,0.4078947368421053
450,1003.9007092198581,0.4013157894736842
451,1003.9007092198581,0.4342105263157895
452,1003.9007092198581,0.38815789473684215
453,1003.9007092198581,0.39473684210526316
454,1003.9007092198581,0.375
455,1003.9007092198581,0.381578947368421
456,1006.6981875492515,0.4407894736842105
457,1006.6981875492515,0.4736842105263158
458,1006.6981875492515,0.4473684210526315
459,1006.6981875492515,0.4671052631578947
460,1006.6981875492515,0.45394736842105265
461,1006.6981875492515,0.4605263157894737
462,1009.4956658786446,0.506578947368421
463,1009.4956658786446,0.513157894736842
464,1009.4956658786446,0.48684210526315785
465,1009.4956658786446,0.5197368421052632
466,1009.4956658786446,0.5
467,1009.4956658786446,0.493421052631579
468,1009.4956658786446,0.5263157894736843
469,1009.4956658786446,0.48026315789473684
470,1009.4956658786446,0.4736842105263158
471,1012.293144208038,0.5394736842105263
472,1012.293144208038,0.5263157894736843
473,1012.293144208038,0.5328947368421053
474,1012.293144208038,0.5460526315789473
475,1015.090622537431,0.5657894736842105
476,1015.090622537431,0.5592105263157895
477,1015.090622537431,0.5526315789473684
