,wavenumbers,absorbance
0,452.797478329393,0.02631578947368418
1,452.797478329393,0.03289473684210531
2,455.5949566587865,0.02631578947368418
3,458.3924349881795,0.02631578947368418
4,461.189913317573,0.02631578947368418
5,461.189913317573,0.03289473684210531
6,463.987391646966,0.03289473684210531
7,466.78486997635946,0.03289473684210531
8,469.5823483057525,0.03289473684210531
9,472.37982663514595,0.03289473684210531
10,475.17730496453896,0.03289473684210531
11,477.97478329393243,0.03947368421052633
12,477.97478329393243,0.03289473684210531
13,480.77226162332545,0.03947368421052633
14,483.56973995271846,0.03947368421052633
15,486.36721828211193,0.03947368421052633
16,489.16469661150495,0.03947368421052633
17,489.16469661150495,0.046052631578947345
18,491.9621749408984,0.046052631578947345
19,494.75965327029144,0.046052631578947345
20,494.75965327029144,0.03947368421052633
21,497.5571315996849,0.03947368421052633
22,500.3546099290779,0.03289473684210531
23,500.3546099290779,0.03947368421052633
24,503.1520882584714,0.03289473684210531
25,505.9495665878644,0.03289473684210531
26,508.7470449172579,0.03289473684210531
27,511.5445232466509,0.03289473684210531
28,514.3420015760439,0.03289473684210531
29,517.1394799054374,0.03289473684210531
30,519.9369582348304,0.03289473684210531
31,522.7344365642239,0.03289473684210531
32,525.5319148936169,0.03289473684210531
33,525.5319148936169,0.02631578947368418
34,528.3293932230104,0.02631578947368418
35,531.1268715524034,0.02631578947368418
36,533.9243498817968,0.02631578947368418
37,533.9243498817968,0.019736842105263164
38,536.7218282111899,0.019736842105263164
39,539.5193065405833,0.019736842105263164
40,542.3167848699763,0.019736842105263164
41,545.1142631993694,0.019736842105263164
42,547.9117415287628,0.019736842105263164
43,550.7092198581558,0.019736842105263164
44,553.5066981875493,0.019736842105263164
45,556.3041765169423,0.019736842105263164
46,559.1016548463358,0.019736842105263164
47,561.8991331757288,0.019736842105263164
48,564.6966115051223,0.019736842105263164
49,567.4940898345153,0.019736842105263164
50,570.2915681639088,0.02631578947368418
51,570.2915681639088,0.019736842105263164
52,573.0890464933018,0.02631578947368418
53,575.8865248226948,0.02631578947368418
54,575.8865248226948,0.03289473684210531
55,578.6840031520883,0.03289473684210531
56,581.4814814814813,0.02631578947368418
57,581.4814814814813,0.03289473684210531
58,584.2789598108748,0.02631578947368418
59,587.0764381402678,0.02631578947368418
60,589.8739164696613,0.02631578947368418
61,592.6713947990543,0.02631578947368418
62,595.4688731284477,0.02631578947368418
63,595.4688731284477,0.019736842105263164
64,598.2663514578408,0.019736842105263164
65,598.2663514578408,0.02631578947368418
66,601.0638297872342,0.02631578947368418
67,603.8613081166272,0.02631578947368418
68,606.6587864460207,0.02631578947368418
69,609.4562647754137,0.02631578947368418
70,612.2537431048067,0.019736842105263164
71,612.2537431048067,0.02631578947368418
72,615.0512214342002,0.019736842105263164
73,617.8486997635932,0.02631578947368418
74,617.8486997635932,0.019736842105263164
75,620.6461780929867,0.02631578947368418
76,623.4436564223797,0.02631578947368418
77,626.2411347517732,0.02631578947368418
78,629.0386130811662,0.02631578947368418
79,629.0386130811662,0.019736842105263164
80,631.8360914105597,0.019736842105263164
81,634.6335697399527,0.019736842105263164
82,637.4310480693462,0.019736842105263164
83,640.2285263987392,0.019736842105263164
84,643.0260047281322,0.019736842105263164
85,645.8234830575257,0.019736842105263164
86,648.6209613869187,0.019736842105263164
87,651.4184397163122,0.019736842105263164
88,654.2159180457052,0.019736842105263164
89,657.0133963750986,0.019736842105263164
90,659.8108747044917,0.019736842105263164
91,662.6083530338851,0.019736842105263164
92,665.4058313632781,0.019736842105263164
93,668.2033096926716,0.019736842105263164
94,671.0007880220646,0.019736842105263164
95,673.7982663514576,0.019736842105263164
96,676.5957446808511,0.02631578947368418
97,676.5957446808511,0.019736842105263164
98,679.3932230102441,0.02631578947368418
99,679.3932230102441,0.019736842105263164
100,682.1907013396376,0.019736842105263164
101,684.9881796690306,0.019736842105263164
102,687.7856579984241,0.019736842105263164
103,690.5831363278171,0.019736842105263164
104,690.5831363278171,0.02631578947368418
105,693.3806146572106,0.02631578947368418
106,696.1780929866036,0.02631578947368418
107,698.9755713159971,0.02631578947368418
108,701.7730496453901,0.02631578947368418
109,704.5705279747831,0.02631578947368418
110,707.3680063041766,0.02631578947368418
111,710.1654846335696,0.02631578947368418
112,712.962962962963,0.019736842105263164
113,712.962962962963,0.02631578947368418
114,715.7604412923561,0.019736842105263164
115,718.5579196217495,0.019736842105263164
116,718.5579196217495,0.02631578947368418
117,721.3553979511425,0.03289473684210531
118,721.3553979511425,0.02631578947368418
119,724.152876280536,0.03289473684210531
120,726.950354609929,0.03289473684210531
121,729.7478329393225,0.03289473684210531
122,729.7478329393225,0.02631578947368418
123,732.5453112687155,0.03289473684210531
124,732.5453112687155,0.02631578947368418
125,735.3427895981085,0.02631578947368418
126,738.140267927502,0.02631578947368418
127,740.937746256895,0.02631578947368418
128,743.7352245862885,0.02631578947368418
129,746.5327029156815,0.02631578947368418
130,749.330181245075,0.02631578947368418
131,752.127659574468,0.02631578947368418
132,754.9251379038615,0.02631578947368418
133,757.7226162332545,0.02631578947368418
134,760.520094562648,0.02631578947368418
135,763.317572892041,0.02631578947368418
136,766.115051221434,0.02631578947368418
137,768.9125295508275,0.02631578947368418
138,771.7100078802205,0.02631578947368418
139,771.7100078802205,0.03289473684210531
140,774.507486209614,0.03289473684210531
141,777.304964539007,0.03289473684210531
142,777.304964539007,0.03947368421052633
143,780.1024428684004,0.03947368421052633
144,782.8999211977934,0.03947368421052633
145,785.6973995271869,0.03947368421052633
146,788.4948778565799,0.046052631578947345
147,788.4948778565799,0.03947368421052633
148,791.2923561859734,0.046052631578947345
149,794.0898345153664,0.052631578947368474
150,794.0898345153664,0.046052631578947345
151,796.8873128447594,0.052631578947368474
152,799.6847911741529,0.052631578947368474
153,802.4822695035459,0.052631578947368474
154,802.4822695035459,0.05921052631578949
155,805.2797478329394,0.05921052631578949
156,808.0772261623324,0.05921052631578949
157,810.8747044917259,0.05921052631578949
158,813.6721828211189,0.052631578947368474
159,813.6721828211189,0.05921052631578949
160,816.4696611505124,0.052631578947368474
161,819.2671394799054,0.052631578947368474
162,819.2671394799054,0.046052631578947345
163,822.0646178092989,0.046052631578947345
164,824.8620961386919,0.046052631578947345
165,824.8620961386919,0.052631578947368474
166,827.6595744680849,0.052631578947368474
167,830.4570527974784,0.052631578947368474
168,833.2545311268714,0.052631578947368474
169,833.2545311268714,0.05921052631578949
170,836.0520094562648,0.05921052631578949
171,838.8494877856579,0.05921052631578949
172,838.8494877856579,0.06578947368421051
173,844.4444444444443,0.06578947368421051
174,847.2419227738378,0.07236842105263153
175,847.2419227738378,0.06578947368421051
176,850.0394011032308,0.07236842105263153
177,852.8368794326243,0.07894736842105265
178,852.8368794326243,0.07236842105263153
179,855.6343577620173,0.07894736842105265
180,858.4318360914103,0.07894736842105265
181,861.2293144208038,0.07894736842105265
182,864.0267927501968,0.07894736842105265
183,864.0267927501968,0.08552631578947367
184,866.8242710795903,0.08552631578947367
185,869.6217494089833,0.08552631578947367
186,872.4192277383768,0.09210526315789469
187,872.4192277383768,0.08552631578947367
188,875.2167060677698,0.09210526315789469
189,878.0141843971633,0.09210526315789469
190,878.0141843971633,0.09868421052631582
191,880.8116627265563,0.09868421052631582
192,883.6091410559497,0.09868421052631582
193,886.4066193853428,0.10526315789473684
194,886.4066193853428,0.09868421052631582
195,889.2040977147362,0.10526315789473684
196,889.2040977147362,0.11184210526315785
197,892.0015760441293,0.11184210526315785
198,892.0015760441293,0.11842105263157898
199,894.7990543735223,0.11842105263157898
200,894.7990543735223,0.11184210526315785
201,897.5965327029157,0.11184210526315785
202,897.5965327029157,0.10526315789473684
203,900.3940110323088,0.09868421052631582
204,900.3940110323088,0.10526315789473684
205,903.1914893617022,0.09868421052631582
206,903.1914893617022,0.09210526315789469
207,903.1914893617022,0.08552631578947367
208,905.9889676910952,0.08552631578947367
209,905.9889676910952,0.07894736842105265
210,908.7864460204887,0.07894736842105265
211,911.5839243498817,0.08552631578947367
212,911.5839243498817,0.07894736842105265
213,914.3814026792752,0.08552631578947367
214,917.1788810086682,0.10526315789473684
215,917.1788810086682,0.08552631578947367
216,917.1788810086682,0.09210526315789469
217,917.1788810086682,0.09868421052631582
218,919.9763593380617,0.10526315789473684
219,922.7738376674547,0.11184210526315785
220,922.7738376674547,0.10526315789473684
221,925.5713159968477,0.11184210526315785
222,928.3687943262412,0.11184210526315785
223,931.1662726556342,0.11184210526315785
224,931.1662726556342,0.11842105263157898
225,933.9637509850277,0.11842105263157898
226,933.9637509850277,0.11184210526315785
227,936.7612293144207,0.11184210526315785
228,939.5587076438142,0.11184210526315785
229,939.5587076438142,0.10526315789473684
230,942.3561859732072,0.10526315789473684
231,945.1536643026006,0.10526315789473684
232,945.1536643026006,0.11842105263157898
233,945.1536643026006,0.11184210526315785
234,947.9511426319937,0.11842105263157898
235,947.9511426319937,0.125
236,947.9511426319937,0.13157894736842102
237,950.7486209613871,0.13157894736842102
238,950.7486209613871,0.13815789473684215
239,953.5460992907801,0.13815789473684215
240,953.5460992907801,0.14473684210526316
241,956.3435776201732,0.14473684210526316
242,956.3435776201732,0.13815789473684215
243,959.1410559495666,0.13815789473684215
244,961.9385342789597,0.13815789473684215
245,961.9385342789597,0.13157894736842102
246,964.7360126083531,0.13157894736842102
247,967.5334909377461,0.125
248,967.5334909377461,0.13157894736842102
249,970.3309692671396,0.125
250,973.1284475965326,0.11842105263157898
251,973.1284475965326,0.125
252,975.9259259259261,0.11842105263157898
253,975.9259259259261,0.125
254,978.7234042553191,0.125
255,978.7234042553191,0.11842105263157898
256,981.5208825847126,0.125
257,984.3183609141056,0.13157894736842102
258,984.3183609141056,0.125
259,987.1158392434986,0.13815789473684215
260,987.1158392434986,0.13157894736842102
261,989.9133175728921,0.13815789473684215
262,992.7107959022851,0.13815789473684215
263,992.7107959022851,0.14473684210526316
264,995.5082742316786,0.14473684210526316
265,998.3057525610716,0.13815789473684215
266,998.3057525610716,0.14473684210526316
267,1001.103230890465,0.13815789473684215
268,1001.103230890465,0.13157894736842102
269,1003.9007092198581,0.13815789473684215
270,1003.9007092198581,0.13157894736842102
271,1006.6981875492515,0.14473684210526316
272,1006.6981875492515,0.13815789473684215
273,1009.4956658786446,0.14473684210526316
274,1009.4956658786446,0.15131578947368418
275,1009.4956658786446,0.16447368421052633
276,1009.4956658786446,0.1578947368421053
277,1012.293144208038,0.17105263157894735
278,1012.293144208038,0.17763157894736847
279,1012.293144208038,0.16447368421052633
280,1015.090622537431,0.1907894736842105
281,1015.090622537431,0.17763157894736847
282,1015.090622537431,0.1842105263157895
283,1017.8881008668241,0.1907894736842105
284,1017.8881008668241,0.19736842105263153
285,1017.8881008668241,0.20394736842105265
286,1020.6855791962175,0.21052631578947367
287,1020.6855791962175,0.20394736842105265
288,1023.4830575256105,0.21052631578947367
289,1023.4830575256105,0.2171052631578947
290,1026.280535855004,0.2171052631578947
291,1029.078014184397,0.2171052631578947
292,1029.078014184397,0.22368421052631582
293,1031.8754925137905,0.22368421052631582
294,1034.6729708431835,0.23684210526315785
295,1034.6729708431835,0.23026315789473684
296,1034.6729708431835,0.22368421052631582
297,1037.470449172577,0.23684210526315785
298,1037.470449172577,0.24342105263157898
299,1037.470449172577,0.25
300,1040.26792750197,0.2828947368421053
301,1040.26792750197,0.2763157894736842
302,1040.26792750197,0.26973684210526316
303,1040.26792750197,0.256578947368421
304,1040.26792750197,0.25
305,1040.26792750197,0.26315789473684215
306,1043.0654058313635,0.3026315789473685
307,1043.0654058313635,0.2828947368421053
308,1043.0654058313635,0.29605263157894735
309,1043.0654058313635,0.3092105263157895
310,1043.0654058313635,0.2894736842105263
311,1045.8628841607565,0.3157894736842105
312,1045.8628841607565,0.3092105263157895
313,1045.8628841607565,0.3223684210526315
314,1045.8628841607565,0.32894736842105265
315,1048.6603624901495,0.3486842105263158
316,1048.6603624901495,0.32894736842105265
317,1048.6603624901495,0.36184210526315785
318,1048.6603624901495,0.368421052631579
319,1048.6603624901495,0.3355263157894737
320,1048.6603624901495,0.35526315789473684
321,1048.6603624901495,0.3421052631578947
322,1051.457840819543,0.375
323,1051.457840819543,0.381578947368421
324,1051.457840819543,0.368421052631579
325,1054.255319148936,0.38815789473684215
326,1054.255319148936,0.381578947368421
327,1054.255319148936,0.39473684210526316
328,1054.255319148936,0.4013157894736842
329,1057.0527974783295,0.4013157894736842
330,1059.8502758077225,0.4013157894736842
331,1059.8502758077225,0.4078947368421053
332,1062.647754137116,0.4078947368421053
333,1065.445232466509,0.4078947368421053
334,1068.2427107959024,0.4013157894736842
335,1068.2427107959024,0.4078947368421053
336,1071.0401891252955,0.4013157894736842
337,1071.0401891252955,0.39473684210526316
338,1073.837667454689,0.375
339,1073.837667454689,0.3486842105263158
340,1073.837667454689,0.39473684210526316
341,1073.837667454689,0.38815789473684215
342,1073.837667454689,0.368421052631579
343,1073.837667454689,0.36184210526315785
344,1073.837667454689,0.381578947368421
345,1073.837667454689,0.35526315789473684
346,1076.635145784082,0.3355263157894737
347,1076.635145784082,0.3421052631578947
348,1076.635145784082,0.3223684210526315
349,1076.635145784082,0.3486842105263158
350,1076.635145784082,0.3157894736842105
351,1076.635145784082,0.32894736842105265
352,1079.432624113475,0.2894736842105263
353,1079.432624113475,0.3157894736842105
354,1079.432624113475,0.3026315789473685
355,1079.432624113475,0.29605263157894735
356,1079.432624113475,0.3092105263157895
357,1079.432624113475,0.26315789473684215
358,1079.432624113475,0.26973684210526316
359,1079.432624113475,0.2763157894736842
360,1079.432624113475,0.2828947368421053
361,1082.2301024428684,0.256578947368421
362,1082.2301024428684,0.23684210526315785
363,1082.2301024428684,0.25
364,1082.2301024428684,0.24342105263157898
365,1082.2301024428684,0.26315789473684215
366,1085.0275807722614,0.23026315789473684
367,1085.0275807722614,0.19736842105263153
368,1085.0275807722614,0.21052631578947367
369,1085.0275807722614,0.2171052631578947
370,1085.0275807722614,0.22368421052631582
371,1085.0275807722614,0.23684210526315785
372,1085.0275807722614,0.20394736842105265
373,1087.825059101655,0.19736842105263153
374,1087.825059101655,0.17763157894736847
375,1087.825059101655,0.1842105263157895
376,1087.825059101655,0.1907894736842105
377,1090.622537431048,0.16447368421052633
378,1090.622537431048,0.1578947368421053
379,1090.622537431048,0.17105263157894735
380,1090.622537431048,0.17763157894736847
381,1093.4200157604414,0.1578947368421053
382,1093.4200157604414,0.15131578947368418
383,1096.2174940898344,0.15131578947368418
384,1096.2174940898344,0.13815789473684215
385,1096.2174940898344,0.14473684210526316
386,1099.014972419228,0.13815789473684215
387,1101.812450748621,0.13815789473684215
388,1104.6099290780144,0.13815789473684215
389,1104.6099290780144,0.14473684210526316
390,1107.4074074074074,0.14473684210526316
391,1110.2048857368004,0.15131578947368418
392,1110.2048857368004,0.14473684210526316
393,1113.0023640661939,0.1578947368421053
394,1113.0023640661939,0.15131578947368418
395,1115.799842395587,0.1578947368421053
396,1115.799842395587,0.16447368421052633
397,1115.799842395587,0.17105263157894735
398,1118.5973207249804,0.17105263157894735
399,1121.3947990543734,0.17105263157894735
400,1121.3947990543734,0.1907894736842105
401,1121.3947990543734,0.1842105263157895
402,1121.3947990543734,0.17763157894736847
403,1124.1922773837669,0.19736842105263153
404,1124.1922773837669,0.1907894736842105
405,1124.1922773837669,0.20394736842105265
406,1126.9897557131599,0.22368421052631582
407,1126.9897557131599,0.20394736842105265
408,1126.9897557131599,0.2171052631578947
409,1126.9897557131599,0.21052631578947367
410,1129.7872340425533,0.22368421052631582
411,1129.7872340425533,0.25
412,1129.7872340425533,0.24342105263157898
413,1129.7872340425533,0.26315789473684215
414,1129.7872340425533,0.23684210526315785
415,1129.7872340425533,0.23026315789473684
416,1129.7872340425533,0.256578947368421
417,1132.5847123719464,0.26315789473684215
418,1132.5847123719464,0.2828947368421053
419,1132.5847123719464,0.26973684210526316
420,1132.5847123719464,0.2763157894736842
421,1135.3821907013398,0.2894736842105263
422,1135.3821907013398,0.3092105263157895
423,1135.3821907013398,0.3026315789473685
424,1135.3821907013398,0.2828947368421053
425,1135.3821907013398,0.3223684210526315
426,1135.3821907013398,0.3157894736842105
427,1135.3821907013398,0.32894736842105265
428,1135.3821907013398,0.29605263157894735
429,1138.1796690307328,0.3486842105263158
430,1138.1796690307328,0.3421052631578947
431,1138.1796690307328,0.3355263157894737
432,1138.1796690307328,0.32894736842105265
433,1138.1796690307328,0.35526315789473684
434,1140.9771473601263,0.38815789473684215
435,1140.9771473601263,0.368421052631579
436,1140.9771473601263,0.39473684210526316
437,1140.9771473601263,0.36184210526315785
438,1140.9771473601263,0.35526315789473684
439,1140.9771473601263,0.375
440,1140.9771473601263,0.4013157894736842
441,1140.9771473601263,0.381578947368421
442,1140.9771473601263,0.4078947368421053
443,1143.7746256895193,0.4078947368421053
444,1143.7746256895193,0.42105263157894735
445,1143.7746256895193,0.4144736842105263
446,1143.7746256895193,0.4276315789473685
447,1146.5721040189123,0.4671052631578947
448,1146.5721040189123,0.4342105263157895
449,1146.5721040189123,0.4276315789473685
450,1146.5721040189123,0.4605263157894737
451,1146.5721040189123,0.4407894736842105
452,1146.5721040189123,0.45394736842105265
453,1146.5721040189123,0.4473684210526315
454,1149.3695823483058,0.4736842105263158
455,1149.3695823483058,0.48026315789473684
456,1149.3695823483058,0.4671052631578947
457,1152.1670606776988,0.48026315789473684
458,1154.9645390070923,0.48026315789473684
459,1157.7620173364853,0.48026315789473684
460,1160.5594956658788,0.48026315789473684
461,1163.3569739952718,0.48026315789473684
462,1163.3569739952718,0.48684210526315785
463,1166.1544523246653,0.48026315789473684
464,1166.1544523246653,0.48684210526315785
465,1168.9519306540583,0.48026315789473684
466,1171.7494089834518,0.4736842105263158
467,1171.7494089834518,0.4671052631578947
468,1171.7494089834518,0.48026315789473684
