,wavenumbers,absorbance
0,452.797478329393,0.019736842105263164
1,455.5949566587865,0.019736842105263164
2,458.3924349881795,0.019736842105263164
3,461.189913317573,0.019736842105263164
4,463.987391646966,0.019736842105263164
5,466.78486997635946,0.019736842105263164
6,469.5823483057525,0.019736842105263164
7,472.37982663514595,0.019736842105263164
8,475.17730496453896,0.019736842105263164
9,477.97478329393243,0.019736842105263164
10,480.77226162332545,0.019736842105263164
11,483.56973995271846,0.019736842105263164
12,486.36721828211193,0.019736842105263164
13,489.16469661150495,0.019736842105263164
14,491.9621749408984,0.019736842105263164
15,494.75965327029144,0.019736842105263164
16,497.5571315996849,0.019736842105263164
17,497.5571315996849,0.02631578947368418
18,500.3546099290779,0.019736842105263164
19,500.3546099290779,0.02631578947368418
20,503.1520882584714,0.019736842105263164
21,505.9495665878644,0.019736842105263164
22,508.7470449172579,0.019736842105263164
23,511.5445232466509,0.019736842105263164
24,511.5445232466509,0.02631578947368418
25,514.3420015760439,0.02631578947368418
26,517.1394799054374,0.02631578947368418
27,519.9369582348304,0.02631578947368418
28,522.7344365642239,0.02631578947368418
29,525.5319148936169,0.02631578947368418
30,528.3293932230104,0.02631578947368418
31,531.1268715524034,0.02631578947368418
32,533.9243498817968,0.02631578947368418
33,536.7218282111899,0.02631578947368418
34,539.5193065405833,0.02631578947368418
35,542.3167848699763,0.02631578947368418
36,545.1142631993694,0.02631578947368418
37,547.9117415287628,0.02631578947368418
38,550.7092198581558,0.02631578947368418
39,553.5066981875493,0.02631578947368418
40,556.3041765169423,0.02631578947368418
41,559.1016548463358,0.02631578947368418
42,561.8991331757288,0.02631578947368418
43,564.6966115051223,0.02631578947368418
44,567.4940898345153,0.02631578947368418
45,570.2915681639088,0.02631578947368418
46,573.0890464933018,0.02631578947368418
47,575.8865248226948,0.02631578947368418
48,578.6840031520883,0.02631578947368418
49,581.4814814814813,0.02631578947368418
50,584.2789598108748,0.02631578947368418
51,587.0764381402678,0.02631578947368418
52,589.8739164696613,0.02631578947368418
53,592.6713947990543,0.02631578947368418
54,595.4688731284477,0.02631578947368418
55,598.2663514578408,0.02631578947368418
56,601.0638297872342,0.019736842105263164
57,601.0638297872342,0.02631578947368418
58,603.8613081166272,0.019736842105263164
59,603.8613081166272,0.02631578947368418
60,606.6587864460207,0.019736842105263164
61,609.4562647754137,0.02631578947368418
62,609.4562647754137,0.019736842105263164
63,612.2537431048067,0.02631578947368418
64,615.0512214342002,0.02631578947368418
65,615.0512214342002,0.019736842105263164
66,617.8486997635932,0.019736842105263164
67,620.6461780929867,0.02631578947368418
68,620.6461780929867,0.019736842105263164
69,623.4436564223797,0.02631578947368418
70,626.2411347517732,0.02631578947368418
71,629.0386130811662,0.02631578947368418
72,631.8360914105597,0.02631578947368418
73,634.6335697399527,0.02631578947368418
74,637.4310480693462,0.02631578947368418
75,640.2285263987392,0.02631578947368418
76,643.0260047281322,0.02631578947368418
77,645.8234830575257,0.02631578947368418
78,648.6209613869187,0.02631578947368418
79,651.4184397163122,0.02631578947368418
80,654.2159180457052,0.02631578947368418
81,657.0133963750986,0.02631578947368418
82,659.8108747044917,0.02631578947368418
83,662.6083530338851,0.02631578947368418
84,665.4058313632781,0.02631578947368418
85,668.2033096926716,0.02631578947368418
86,671.0007880220646,0.02631578947368418
87,673.7982663514576,0.02631578947368418
88,676.5957446808511,0.02631578947368418
89,679.3932230102441,0.02631578947368418
90,682.1907013396376,0.02631578947368418
91,684.9881796690306,0.02631578947368418
92,687.7856579984241,0.02631578947368418
93,690.5831363278171,0.02631578947368418
94,693.3806146572106,0.02631578947368418
95,696.1780929866036,0.02631578947368418
96,698.9755713159971,0.02631578947368418
97,701.7730496453901,0.02631578947368418
98,704.5705279747831,0.02631578947368418
99,707.3680063041766,0.02631578947368418
100,710.1654846335696,0.02631578947368418
101,712.962962962963,0.02631578947368418
102,715.7604412923561,0.02631578947368418
103,718.5579196217495,0.02631578947368418
104,721.3553979511425,0.02631578947368418
105,724.152876280536,0.03289473684210531
106,724.152876280536,0.02631578947368418
107,726.950354609929,0.03289473684210531
108,729.7478329393225,0.03289473684210531
109,732.5453112687155,0.03289473684210531
110,735.3427895981085,0.03289473684210531
111,738.140267927502,0.03289473684210531
112,740.937746256895,0.03289473684210531
113,740.937746256895,0.02631578947368418
114,743.7352245862885,0.02631578947368418
115,746.5327029156815,0.02631578947368418
116,749.330181245075,0.02631578947368418
117,752.127659574468,0.02631578947368418
118,754.9251379038615,0.02631578947368418
119,757.7226162332545,0.02631578947368418
120,760.520094562648,0.02631578947368418
121,763.317572892041,0.02631578947368418
122,766.115051221434,0.02631578947368418
123,768.9125295508275,0.02631578947368418
124,771.7100078802205,0.02631578947368418
125,774.507486209614,0.02631578947368418
126,777.304964539007,0.02631578947368418
127,780.1024428684004,0.02631578947368418
128,782.8999211977934,0.02631578947368418
129,785.6973995271869,0.02631578947368418
130,788.4948778565799,0.02631578947368418
131,791.2923561859734,0.02631578947368418
132,794.0898345153664,0.019736842105263164
133,794.0898345153664,0.02631578947368418
134,796.8873128447594,0.019736842105263164
135,799.6847911741529,0.019736842105263164
136,802.4822695035459,0.019736842105263164
137,805.2797478329394,0.019736842105263164
138,808.0772261623324,0.019736842105263164
139,810.8747044917259,0.019736842105263164
140,813.6721828211189,0.019736842105263164
141,816.4696611505124,0.019736842105263164
142,819.2671394799054,0.019736842105263164
143,822.0646178092989,0.019736842105263164
144,824.8620961386919,0.019736842105263164
145,827.6595744680849,0.019736842105263164
146,830.4570527974784,0.019736842105263164
147,833.2545311268714,0.019736842105263164
148,836.0520094562648,0.019736842105263164
149,838.8494877856579,0.019736842105263164
150,841.6469661150513,0.019736842105263164
151,844.4444444444443,0.019736842105263164
152,847.2419227738378,0.019736842105263164
153,850.0394011032308,0.019736842105263164
154,852.8368794326243,0.019736842105263164
155,855.6343577620173,0.019736842105263164
156,858.4318360914103,0.019736842105263164
157,861.2293144208038,0.019736842105263164
158,864.0267927501968,0.019736842105263164
159,866.8242710795903,0.019736842105263164
160,869.6217494089833,0.019736842105263164
161,872.4192277383768,0.019736842105263164
162,875.2167060677698,0.019736842105263164
163,878.0141843971633,0.019736842105263164
164,880.8116627265563,0.019736842105263164
165,883.6091410559497,0.019736842105263164
166,886.4066193853428,0.019736842105263164
167,889.2040977147362,0.019736842105263164
168,892.0015760441293,0.019736842105263164
169,894.7990543735223,0.019736842105263164
170,897.5965327029157,0.019736842105263164
171,900.3940110323088,0.019736842105263164
172,903.1914893617022,0.02631578947368418
173,903.1914893617022,0.019736842105263164
174,905.9889676910952,0.02631578947368418
175,908.7864460204887,0.02631578947368418
176,911.5839243498817,0.02631578947368418
177,914.3814026792752,0.02631578947368418
178,917.1788810086682,0.02631578947368418
179,919.9763593380617,0.02631578947368418
180,922.7738376674547,0.02631578947368418
181,925.5713159968477,0.02631578947368418
182,928.3687943262412,0.02631578947368418
183,931.1662726556342,0.02631578947368418
184,933.9637509850277,0.02631578947368418
185,936.7612293144207,0.02631578947368418
186,939.5587076438142,0.02631578947368418
187,942.3561859732072,0.02631578947368418
188,945.1536643026006,0.02631578947368418
189,947.9511426319937,0.02631578947368418
190,950.7486209613871,0.02631578947368418
191,953.5460992907801,0.02631578947368418
192,956.3435776201732,0.02631578947368418
193,959.1410559495666,0.02631578947368418
194,961.9385342789597,0.02631578947368418
195,964.7360126083531,0.02631578947368418
196,967.5334909377461,0.02631578947368418
197,970.3309692671396,0.02631578947368418
198,973.1284475965326,0.02631578947368418
199,975.9259259259261,0.02631578947368418
200,978.7234042553191,0.02631578947368418
201,981.5208825847126,0.02631578947368418
202,984.3183609141056,0.02631578947368418
203,987.1158392434986,0.02631578947368418
204,989.9133175728921,0.02631578947368418
205,992.7107959022851,0.02631578947368418
206,995.5082742316786,0.02631578947368418
207,998.3057525610716,0.02631578947368418
208,1001.103230890465,0.02631578947368418
209,1003.9007092198581,0.02631578947368418
210,1006.6981875492515,0.02631578947368418
211,1009.4956658786446,0.02631578947368418
212,1012.293144208038,0.02631578947368418
213,1015.090622537431,0.02631578947368418
214,1017.8881008668241,0.02631578947368418
215,1020.6855791962175,0.02631578947368418
216,1023.4830575256105,0.02631578947368418
217,1026.280535855004,0.02631578947368418
218,1029.078014184397,0.02631578947368418
219,1031.8754925137905,0.02631578947368418
220,1034.6729708431835,0.02631578947368418
221,1037.470449172577,0.02631578947368418
222,1040.26792750197,0.02631578947368418
223,1043.0654058313635,0.02631578947368418
224,1045.8628841607565,0.02631578947368418
225,1048.6603624901495,0.02631578947368418
226,1051.457840819543,0.02631578947368418
227,1054.255319148936,0.02631578947368418
228,1057.0527974783295,0.02631578947368418
229,1059.8502758077225,0.02631578947368418
230,1062.647754137116,0.02631578947368418
231,1065.445232466509,0.02631578947368418
232,1068.2427107959024,0.02631578947368418
233,1071.0401891252955,0.02631578947368418
234,1073.837667454689,0.02631578947368418
235,1076.635145784082,0.02631578947368418
236,1079.432624113475,0.02631578947368418
237,1082.2301024428684,0.02631578947368418
238,1085.0275807722614,0.02631578947368418
239,1087.825059101655,0.02631578947368418
240,1090.622537431048,0.02631578947368418
241,1093.4200157604414,0.02631578947368418
242,1096.2174940898344,0.02631578947368418
243,1099.014972419228,0.02631578947368418
244,1101.812450748621,0.02631578947368418
245,1104.6099290780144,0.02631578947368418
246,1107.4074074074074,0.02631578947368418
247,1110.2048857368004,0.02631578947368418
248,1113.0023640661939,0.02631578947368418
249,1115.799842395587,0.02631578947368418
250,1115.799842395587,0.03289473684210531
251,1118.5973207249804,0.03289473684210531
252,1121.3947990543734,0.03289473684210531
253,1124.1922773837669,0.03289473684210531
254,1126.9897557131599,0.02631578947368418
255,1126.9897557131599,0.03289473684210531
256,1129.7872340425533,0.02631578947368418
257,1132.5847123719464,0.02631578947368418
258,1135.3821907013398,0.02631578947368418
259,1138.1796690307328,0.02631578947368418
260,1140.9771473601263,0.02631578947368418
261,1143.7746256895193,0.02631578947368418
262,1146.5721040189123,0.02631578947368418
263,1146.5721040189123,0.03289473684210531
264,1149.3695823483058,0.03289473684210531
265,1152.1670606776988,0.03289473684210531
266,1152.1670606776988,0.02631578947368418
267,1154.9645390070923,0.02631578947368418
268,1157.7620173364853,0.02631578947368418
269,1160.5594956658788,0.02631578947368418
270,1160.5594956658788,0.03289473684210531
271,1163.3569739952718,0.03289473684210531
272,1166.1544523246653,0.03289473684210531
273,1168.9519306540583,0.02631578947368418
274,1168.9519306540583,0.03289473684210531
275,1171.7494089834518,0.02631578947368418
276,1174.5468873128448,0.02631578947368418
277,1177.3443656422378,0.02631578947368418
278,1180.1418439716313,0.02631578947368418
279,1182.9393223010243,0.02631578947368418
280,1185.7368006304177,0.02631578947368418
281,1188.5342789598108,0.02631578947368418
282,1191.3317572892042,0.02631578947368418
283,1194.1292356185972,0.02631578947368418
284,1196.9267139479907,0.02631578947368418
285,1199.7241922773837,0.02631578947368418
286,1202.5216706067772,0.02631578947368418
287,1202.5216706067772,0.019736842105263164
288,1205.3191489361702,0.019736842105263164
289,1208.1166272655632,0.02631578947368418
290,1208.1166272655632,0.019736842105263164
291,1210.9141055949567,0.019736842105263164
292,1213.7115839243497,0.019736842105263164
293,1216.5090622537432,0.019736842105263164
294,1219.3065405831362,0.019736842105263164
295,1222.1040189125297,0.019736842105263164
296,1224.9014972419227,0.019736842105263164
297,1227.6989755713162,0.019736842105263164
298,1227.6989755713162,0.02631578947368418
299,1230.4964539007092,0.02631578947368418
300,1233.2939322301027,0.02631578947368418
301,1236.0914105594957,0.02631578947368418
302,1238.8888888888887,0.02631578947368418
303,1241.6863672182822,0.02631578947368418
304,1244.4838455476752,0.02631578947368418
305,1247.2813238770686,0.02631578947368418
306,1250.0788022064617,0.02631578947368418
307,1252.8762805358551,0.02631578947368418
308,1255.6737588652481,0.02631578947368418
309,1258.4712371946416,0.02631578947368418
310,1261.2687155240346,0.02631578947368418
311,1264.066193853428,0.02631578947368418
312,1266.8636721828211,0.02631578947368418
313,1269.6611505122141,0.02631578947368418
314,1272.4586288416076,0.02631578947368418
315,1275.2561071710006,0.02631578947368418
316,1278.053585500394,0.02631578947368418
317,1280.851063829787,0.02631578947368418
318,1283.6485421591806,0.02631578947368418
319,1286.4460204885736,0.02631578947368418
320,1289.243498817967,0.02631578947368418
321,1292.04097714736,0.02631578947368418
322,1294.8384554767536,0.02631578947368418
323,1297.6359338061466,0.02631578947368418
324,1300.4334121355396,0.02631578947368418
325,1303.230890464933,0.02631578947368418
326,1306.028368794326,0.02631578947368418
327,1308.8258471237195,0.02631578947368418
328,1311.6233254531126,0.02631578947368418
329,1314.420803782506,0.02631578947368418
330,1317.218282111899,0.02631578947368418
331,1320.0157604412925,0.02631578947368418
332,1322.8132387706855,0.02631578947368418
333,1325.610717100079,0.02631578947368418
334,1328.408195429472,0.02631578947368418
335,1331.205673758865,0.02631578947368418
336,1331.205673758865,0.03289473684210531
337,1334.0031520882585,0.03289473684210531
338,1334.0031520882585,0.02631578947368418
339,1336.8006304176515,0.03289473684210531
340,1336.8006304176515,0.02631578947368418
341,1339.598108747045,0.03289473684210531
342,1339.598108747045,0.02631578947368418
343,1342.395587076438,0.03289473684210531
344,1345.1930654058315,0.03947368421052633
345,1345.1930654058315,0.03289473684210531
346,1347.9905437352245,0.03947368421052633
347,1350.788022064618,0.03947368421052633
348,1350.788022064618,0.046052631578947345
349,1353.585500394011,0.046052631578947345
350,1353.585500394011,0.052631578947368474
351,1356.3829787234044,0.052631578947368474
352,1356.3829787234044,0.05921052631578949
353,1356.3829787234044,0.07236842105263153
354,1356.3829787234044,0.06578947368421051
355,1359.1804570527975,0.07236842105263153
356,1359.1804570527975,0.11842105263157898
357,1359.1804570527975,0.10526315789473684
358,1359.1804570527975,0.13157894736842102
359,1359.1804570527975,0.125
360,1359.1804570527975,0.11184210526315785
361,1359.1804570527975,0.08552631578947367
362,1359.1804570527975,0.09210526315789469
363,1359.1804570527975,0.07894736842105265
364,1359.1804570527975,0.09868421052631582
365,1361.9779353821905,0.125
366,1361.9779353821905,0.13157894736842102
367,1364.775413711584,0.11184210526315785
368,1364.775413711584,0.09210526315789469
369,1364.775413711584,0.125
370,1364.775413711584,0.10526315789473684
371,1364.775413711584,0.11842105263157898
372,1364.775413711584,0.09868421052631582
373,1367.572892040977,0.09868421052631582
374,1367.572892040977,0.09210526315789469
375,1370.3703703703704,0.10526315789473684
376,1370.3703703703704,0.14473684210526316
377,1370.3703703703704,0.11842105263157898
378,1370.3703703703704,0.15131578947368418
379,1370.3703703703704,0.11184210526315785
380,1370.3703703703704,0.09868421052631582
381,1370.3703703703704,0.13815789473684215
382,1370.3703703703704,0.13157894736842102
383,1370.3703703703704,0.125
384,1373.1678486997635,0.1578947368421053
385,1373.1678486997635,0.15131578947368418
386,1373.1678486997635,0.16447368421052633
387,1373.1678486997635,0.17105263157894735
388,1375.965327029157,0.1578947368421053
389,1375.965327029157,0.17105263157894735
390,1375.965327029157,0.16447368421052633
391,1378.76280535855,0.14473684210526316
392,1378.76280535855,0.1578947368421053
393,1378.76280535855,0.15131578947368418
394,1381.5602836879434,0.125
395,1381.5602836879434,0.13815789473684215
396,1381.5602836879434,0.13157894736842102
397,1381.5602836879434,0.14473684210526316
398,1384.3577620173364,0.07894736842105265
399,1384.3577620173364,0.125
400,1384.3577620173364,0.06578947368421051
401,1384.3577620173364,0.07236842105263153
402,1384.3577620173364,0.10526315789473684
403,1384.3577620173364,0.09868421052631582
404,1384.3577620173364,0.09210526315789469
405,1384.3577620173364,0.11184210526315785
406,1384.3577620173364,0.08552631578947367
407,1384.3577620173364,0.11842105263157898
408,1387.15524034673,0.05921052631578949
409,1387.15524034673,0.06578947368421051
410,1389.952718676123,0.046052631578947345
411,1389.952718676123,0.05921052631578949
412,1389.952718676123,0.052631578947368474
413,1389.952718676123,0.03947368421052633
414,1392.750197005516,0.03289473684210531
415,1392.750197005516,0.03947368421052633
416,1395.5476753349094,0.03289473684210531
417,1395.5476753349094,0.02631578947368418
418,1398.3451536643024,0.02631578947368418
419,1401.1426319936959,0.02631578947368418
420,1403.940110323089,0.02631578947368418
421,1406.7375886524824,0.02631578947368418
422,1409.5350669818754,0.02631578947368418
423,1412.3325453112689,0.02631578947368418
424,1415.1300236406619,0.02631578947368418
425,1417.9275019700553,0.02631578947368418
426,1420.7249802994484,0.02631578947368418
427,1420.7249802994484,0.03289473684210531
428,1423.5224586288418,0.03289473684210531
429,1426.3199369582348,0.03947368421052633
430,1426.3199369582348,0.03289473684210531
431,1429.1174152876279,0.046052631578947345
432,1429.1174152876279,0.03947368421052633
433,1431.9148936170213,0.052631578947368474
434,1431.9148936170213,0.046052631578947345
435,1431.9148936170213,0.05921052631578949
436,1434.7123719464144,0.06578947368421051
437,1434.7123719464144,0.05921052631578949
438,1437.5098502758078,0.07894736842105265
439,1437.5098502758078,0.06578947368421051
440,1437.5098502758078,0.07236842105263153
441,1437.5098502758078,0.08552631578947367
442,1440.3073286052008,0.09210526315789469
443,1440.3073286052008,0.08552631578947367
444,1443.1048069345943,0.09868421052631582
445,1443.1048069345943,0.09210526315789469
446,1443.1048069345943,0.10526315789473684
447,1445.9022852639873,0.11184210526315785
448,1445.9022852639873,0.10526315789473684
449,1445.9022852639873,0.11842105263157898
450,1445.9022852639873,0.13157894736842102
451,1445.9022852639873,0.14473684210526316
452,1445.9022852639873,0.125
453,1445.9022852639873,0.13815789473684215
454,1448.6997635933808,0.15131578947368418
455,1448.6997635933808,0.1578947368421053
456,1448.6997635933808,0.14473684210526316
457,1448.6997635933808,0.16447368421052633
458,1451.4972419227738,0.16447368421052633
459,1451.4972419227738,0.17105263157894735
460,1451.4972419227738,0.2171052631578947
461,1451.4972419227738,0.17763157894736847
462,1451.4972419227738,0.1842105263157895
