,wavenumbers,absorbance
0,452.797478329393,0.02631578947368418
1,452.797478329393,0.019736842105263164
2,455.5949566587865,0.019736842105263164
3,458.3924349881795,0.019736842105263164
4,461.189913317573,0.019736842105263164
5,463.987391646966,0.019736842105263164
6,463.987391646966,0.02631578947368418
7,466.78486997635946,0.019736842105263164
8,466.78486997635946,0.02631578947368418
9,469.5823483057525,0.019736842105263164
10,472.37982663514595,0.019736842105263164
11,475.17730496453896,0.019736842105263164
12,477.97478329393243,0.019736842105263164
13,480.77226162332545,0.019736842105263164
14,483.56973995271846,0.019736842105263164
15,486.36721828211193,0.019736842105263164
16,489.16469661150495,0.019736842105263164
17,491.9621749408984,0.019736842105263164
18,494.75965327029144,0.019736842105263164
19,497.5571315996849,0.019736842105263164
20,500.3546099290779,0.019736842105263164
21,500.3546099290779,0.013157894736842146
22,503.1520882584714,0.019736842105263164
23,505.9495665878644,0.019736842105263164
24,508.7470449172579,0.019736842105263164
25,508.7470449172579,0.02631578947368418
26,511.5445232466509,0.02631578947368418
27,514.3420015760439,0.02631578947368418
28,517.1394799054374,0.02631578947368418
29,519.9369582348304,0.02631578947368418
30,519.9369582348304,0.03289473684210531
31,522.7344365642239,0.03289473684210531
32,522.7344365642239,0.02631578947368418
33,525.5319148936169,0.02631578947368418
34,525.5319148936169,0.019736842105263164
35,528.3293932230104,0.019736842105263164
36,528.3293932230104,0.02631578947368418
37,531.1268715524034,0.02631578947368418
38,533.9243498817968,0.02631578947368418
39,536.7218282111899,0.02631578947368418
40,539.5193065405833,0.03289473684210531
41,539.5193065405833,0.02631578947368418
42,542.3167848699763,0.03289473684210531
43,545.1142631993694,0.03289473684210531
44,547.9117415287628,0.03289473684210531
45,550.7092198581558,0.03289473684210531
46,553.5066981875493,0.03289473684210531
47,556.3041765169423,0.03289473684210531
48,559.1016548463358,0.03289473684210531
49,561.8991331757288,0.03289473684210531
50,564.6966115051223,0.03289473684210531
51,567.4940898345153,0.03289473684210531
52,567.4940898345153,0.03947368421052633
53,570.2915681639088,0.03947368421052633
54,573.0890464933018,0.046052631578947345
55,573.0890464933018,0.03947368421052633
56,575.8865248226948,0.046052631578947345
57,578.6840031520883,0.046052631578947345
58,581.4814814814813,0.046052631578947345
59,584.2789598108748,0.046052631578947345
60,587.0764381402678,0.03947368421052633
61,587.0764381402678,0.046052631578947345
62,589.8739164696613,0.03947368421052633
63,592.6713947990543,0.03947368421052633
64,595.4688731284477,0.03289473684210531
65,595.4688731284477,0.03947368421052633
66,598.2663514578408,0.03289473684210531
67,601.0638297872342,0.03289473684210531
68,601.0638297872342,0.03947368421052633
69,603.8613081166272,0.03947368421052633
70,606.6587864460207,0.03947368421052633
71,609.4562647754137,0.03947368421052633
72,612.2537431048067,0.03947368421052633
73,615.0512214342002,0.03947368421052633
74,617.8486997635932,0.03947368421052633
75,620.6461780929867,0.03947368421052633
76,623.4436564223797,0.03947368421052633
77,623.4436564223797,0.03289473684210531
78,626.2411347517732,0.03289473684210531
79,629.0386130811662,0.03289473684210531
80,631.8360914105597,0.03947368421052633
81,631.8360914105597,0.03289473684210531
82,634.6335697399527,0.03947368421052633
83,634.6335697399527,0.03289473684210531
84,637.4310480693462,0.03289473684210531
85,640.2285263987392,0.03289473684210531
86,643.0260047281322,0.03289473684210531
87,645.8234830575257,0.03289473684210531
88,645.8234830575257,0.03947368421052633
89,648.6209613869187,0.03947368421052633
90,651.4184397163122,0.03947368421052633
91,654.2159180457052,0.03947368421052633
92,657.0133963750986,0.03947368421052633
93,659.8108747044917,0.03947368421052633
94,662.6083530338851,0.03947368421052633
95,665.4058313632781,0.03947368421052633
96,668.2033096926716,0.03947368421052633
97,671.0007880220646,0.03947368421052633
98,673.7982663514576,0.03947368421052633
99,676.5957446808511,0.03947368421052633
100,679.3932230102441,0.03947368421052633
101,682.1907013396376,0.03947368421052633
102,684.9881796690306,0.03947368421052633
103,687.7856579984241,0.03947368421052633
104,690.5831363278171,0.046052631578947345
105,693.3806146572106,0.052631578947368474
106,693.3806146572106,0.046052631578947345
107,696.1780929866036,0.05921052631578949
108,696.1780929866036,0.052631578947368474
109,698.9755713159971,0.05921052631578949
110,698.9755713159971,0.052631578947368474
111,701.7730496453901,0.052631578947368474
112,704.5705279747831,0.052631578947368474
113,707.3680063041766,0.046052631578947345
114,707.3680063041766,0.052631578947368474
115,710.1654846335696,0.046052631578947345
116,712.962962962963,0.046052631578947345
117,715.7604412923561,0.046052631578947345
118,718.5579196217495,0.046052631578947345
119,721.3553979511425,0.046052631578947345
120,724.152876280536,0.05921052631578949
121,724.152876280536,0.052631578947368474
122,724.152876280536,0.046052631578947345
123,726.950354609929,0.05921052631578949
124,726.950354609929,0.06578947368421051
125,729.7478329393225,0.07236842105263153
126,729.7478329393225,0.06578947368421051
127,732.5453112687155,0.07236842105263153
128,732.5453112687155,0.06578947368421051
129,735.3427895981085,0.05921052631578949
130,735.3427895981085,0.06578947368421051
131,738.140267927502,0.05921052631578949
132,738.140267927502,0.052631578947368474
133,740.937746256895,0.052631578947368474
134,743.7352245862885,0.052631578947368474
135,746.5327029156815,0.046052631578947345
136,746.5327029156815,0.052631578947368474
137,749.330181245075,0.046052631578947345
138,752.127659574468,0.046052631578947345
139,754.9251379038615,0.046052631578947345
140,757.7226162332545,0.046052631578947345
141,760.520094562648,0.052631578947368474
142,760.520094562648,0.046052631578947345
143,763.317572892041,0.05921052631578949
144,763.317572892041,0.052631578947368474
145,766.115051221434,0.05921052631578949
146,768.9125295508275,0.05921052631578949
147,768.9125295508275,0.052631578947368474
148,771.7100078802205,0.052631578947368474
149,771.7100078802205,0.046052631578947345
150,774.507486209614,0.046052631578947345
151,774.507486209614,0.03947368421052633
152,777.304964539007,0.03289473684210531
153,777.304964539007,0.03947368421052633
154,780.1024428684004,0.03289473684210531
155,782.8999211977934,0.02631578947368418
156,782.8999211977934,0.03289473684210531
157,785.6973995271869,0.02631578947368418
158,788.4948778565799,0.02631578947368418
159,791.2923561859734,0.02631578947368418
160,794.0898345153664,0.02631578947368418
161,796.8873128447594,0.02631578947368418
162,799.6847911741529,0.02631578947368418
163,802.4822695035459,0.02631578947368418
164,802.4822695035459,0.03289473684210531
165,805.2797478329394,0.03289473684210531
166,805.2797478329394,0.03947368421052633
167,808.0772261623324,0.03947368421052633
168,810.8747044917259,0.03947368421052633
169,810.8747044917259,0.046052631578947345
170,813.6721828211189,0.046052631578947345
171,816.4696611505124,0.046052631578947345
172,819.2671394799054,0.046052631578947345
173,819.2671394799054,0.03947368421052633
174,822.0646178092989,0.03947368421052633
175,824.8620961386919,0.03947368421052633
176,824.8620961386919,0.03289473684210531
177,827.6595744680849,0.03289473684210531
178,830.4570527974784,0.03289473684210531
179,833.2545311268714,0.03289473684210531
180,836.0520094562648,0.03289473684210531
181,838.8494877856579,0.03289473684210531
182,841.6469661150513,0.03289473684210531
183,844.4444444444443,0.03289473684210531
184,847.2419227738378,0.02631578947368418
185,847.2419227738378,0.03289473684210531
186,850.0394011032308,0.02631578947368418
187,852.8368794326243,0.02631578947368418
188,855.6343577620173,0.02631578947368418
189,858.4318360914103,0.02631578947368418
190,861.2293144208038,0.02631578947368418
191,861.2293144208038,0.019736842105263164
192,864.0267927501968,0.019736842105263164
193,866.8242710795903,0.019736842105263164
194,869.6217494089833,0.019736842105263164
195,872.4192277383768,0.019736842105263164
196,875.2167060677698,0.019736842105263164
197,878.0141843971633,0.019736842105263164
198,880.8116627265563,0.019736842105263164
199,883.6091410559497,0.019736842105263164
200,886.4066193853428,0.019736842105263164
201,889.2040977147362,0.019736842105263164
202,892.0015760441293,0.02631578947368418
203,892.0015760441293,0.019736842105263164
204,894.7990543735223,0.02631578947368418
205,897.5965327029157,0.03289473684210531
206,897.5965327029157,0.02631578947368418
207,900.3940110323088,0.03289473684210531
208,903.1914893617022,0.03289473684210531
209,903.1914893617022,0.03947368421052633
210,905.9889676910952,0.03947368421052633
211,905.9889676910952,0.046052631578947345
212,905.9889676910952,0.052631578947368474
213,908.7864460204887,0.052631578947368474
214,911.5839243498817,0.052631578947368474
215,914.3814026792752,0.052631578947368474
216,917.1788810086682,0.052631578947368474
217,919.9763593380617,0.052631578947368474
218,919.9763593380617,0.05921052631578949
219,922.7738376674547,0.05921052631578949
220,922.7738376674547,0.06578947368421051
221,922.7738376674547,0.07236842105263153
222,925.5713159968477,0.07236842105263153
223,928.3687943262412,0.07236842105263153
224,931.1662726556342,0.07236842105263153
225,931.1662726556342,0.07894736842105265
226,933.9637509850277,0.07894736842105265
227,936.7612293144207,0.08552631578947367
228,936.7612293144207,0.07894736842105265
229,939.5587076438142,0.08552631578947367
230,942.3561859732072,0.09210526315789469
231,942.3561859732072,0.08552631578947367
232,942.3561859732072,0.09868421052631582
233,945.1536643026006,0.10526315789473684
234,945.1536643026006,0.11184210526315785
235,945.1536643026006,0.09868421052631582
236,947.9511426319937,0.13157894736842102
237,947.9511426319937,0.125
238,947.9511426319937,0.11842105263157898
239,947.9511426319937,0.11184210526315785
240,950.7486209613871,0.14473684210526316
241,950.7486209613871,0.13815789473684215
242,950.7486209613871,0.13157894736842102
243,953.5460992907801,0.14473684210526316
244,953.5460992907801,0.15131578947368418
245,953.5460992907801,0.1578947368421053
246,956.3435776201732,0.1578947368421053
247,959.1410559495666,0.15131578947368418
248,959.1410559495666,0.1578947368421053
249,961.9385342789597,0.13815789473684215
250,961.9385342789597,0.14473684210526316
251,961.9385342789597,0.13157894736842102
252,961.9385342789597,0.15131578947368418
253,961.9385342789597,0.125
254,964.7360126083531,0.125
255,964.7360126083531,0.11842105263157898
256,967.5334909377461,0.10526315789473684
257,967.5334909377461,0.09868421052631582
258,967.5334909377461,0.11184210526315785
259,967.5334909377461,0.11842105263157898
260,970.3309692671396,0.09868421052631582
261,970.3309692671396,0.09210526315789469
262,973.1284475965326,0.09210526315789469
263,973.1284475965326,0.08552631578947367
264,975.9259259259261,0.08552631578947367
265,978.7234042553191,0.08552631578947367
266,978.7234042553191,0.07894736842105265
267,981.5208825847126,0.07894736842105265
268,984.3183609141056,0.07894736842105265
269,987.1158392434986,0.08552631578947367
270,987.1158392434986,0.07894736842105265
271,989.9133175728921,0.08552631578947367
272,992.7107959022851,0.08552631578947367
273,995.5082742316786,0.08552631578947367
274,998.3057525610716,0.08552631578947367
275,998.3057525610716,0.09210526315789469
276,1001.103230890465,0.09210526315789469
277,1001.103230890465,0.09868421052631582
278,1003.9007092198581,0.10526315789473684
279,1003.9007092198581,0.09868421052631582
280,1006.6981875492515,0.10526315789473684
281,1009.4956658786446,0.11184210526315785
282,1009.4956658786446,0.11842105263157898
283,1009.4956658786446,0.125
284,1009.4956658786446,0.10526315789473684
285,1012.293144208038,0.125
286,1012.293144208038,0.13157894736842102
287,1015.090622537431,0.13157894736842102
288,1015.090622537431,0.13815789473684215
289,1017.8881008668241,0.13815789473684215
290,1017.8881008668241,0.13157894736842102
291,1017.8881008668241,0.125
292,1020.6855791962175,0.125
293,1023.4830575256105,0.13157894736842102
294,1023.4830575256105,0.125
295,1023.4830575256105,0.13815789473684215
296,1026.280535855004,0.14473684210526316
297,1026.280535855004,0.13815789473684215
298,1029.078014184397,0.1578947368421053
299,1029.078014184397,0.14473684210526316
300,1029.078014184397,0.15131578947368418
301,1031.8754925137905,0.1578947368421053
302,1031.8754925137905,0.16447368421052633
303,1034.6729708431835,0.17105263157894735
304,1034.6729708431835,0.1842105263157895
305,1034.6729708431835,0.16447368421052633
306,1034.6729708431835,0.17763157894736847
307,1037.470449172577,0.1907894736842105
308,1037.470449172577,0.1842105263157895
309,1040.26792750197,0.1907894736842105
310,1040.26792750197,0.20394736842105265
311,1040.26792750197,0.19736842105263153
312,1043.0654058313635,0.21052631578947367
313,1043.0654058313635,0.20394736842105265
314,1045.8628841607565,0.2171052631578947
315,1045.8628841607565,0.21052631578947367
316,1048.6603624901495,0.22368421052631582
317,1048.6603624901495,0.2171052631578947
318,1048.6603624901495,0.23026315789473684
319,1051.457840819543,0.23684210526315785
320,1051.457840819543,0.23026315789473684
321,1051.457840819543,0.24342105263157898
322,1054.255319148936,0.24342105263157898
323,1054.255319148936,0.2763157894736842
324,1054.255319148936,0.256578947368421
325,1054.255319148936,0.26973684210526316
326,1054.255319148936,0.26315789473684215
327,1054.255319148936,0.25
328,1057.0527974783295,0.2828947368421053
329,1057.0527974783295,0.2894736842105263
330,1057.0527974783295,0.2763157894736842
331,1057.0527974783295,0.29605263157894735
332,1059.8502758077225,0.3157894736842105
333,1059.8502758077225,0.3092105263157895
334,1059.8502758077225,0.3026315789473685
335,1059.8502758077225,0.32894736842105265
336,1059.8502758077225,0.3223684210526315
337,1059.8502758077225,0.29605263157894735
338,1062.647754137116,0.32894736842105265
339,1062.647754137116,0.3355263157894737
340,1065.445232466509,0.3026315789473685
341,1065.445232466509,0.32894736842105265
342,1065.445232466509,0.3157894736842105
343,1065.445232466509,0.3092105263157895
344,1065.445232466509,0.3223684210526315
345,1065.445232466509,0.3355263157894737
346,1068.2427107959024,0.2894736842105263
347,1068.2427107959024,0.3026315789473685
348,1068.2427107959024,0.2828947368421053
349,1068.2427107959024,0.29605263157894735
350,1071.0401891252955,0.2828947368421053
351,1071.0401891252955,0.2763157894736842
352,1071.0401891252955,0.26973684210526316
353,1073.837667454689,0.26315789473684215
354,1073.837667454689,0.25
355,1073.837667454689,0.23684210526315785
356,1073.837667454689,0.26973684210526316
357,1073.837667454689,0.256578947368421
358,1073.837667454689,0.24342105263157898
359,1076.635145784082,0.23684210526315785
360,1076.635145784082,0.23026315789473684
361,1076.635145784082,0.22368421052631582
362,1079.432624113475,0.22368421052631582
363,1079.432624113475,0.19736842105263153
364,1079.432624113475,0.20394736842105265
365,1079.432624113475,0.21052631578947367
366,1079.432624113475,0.2171052631578947
367,1082.2301024428684,0.19736842105263153
368,1082.2301024428684,0.1842105263157895
369,1082.2301024428684,0.1907894736842105
370,1082.2301024428684,0.17763157894736847
371,1085.0275807722614,0.17763157894736847
372,1085.0275807722614,0.16447368421052633
373,1085.0275807722614,0.17105263157894735
374,1085.0275807722614,0.1578947368421053
375,1087.825059101655,0.1578947368421053
376,1087.825059101655,0.15131578947368418
377,1090.622537431048,0.15131578947368418
378,1090.622537431048,0.14473684210526316
379,1093.4200157604414,0.14473684210526316
380,1096.2174940898344,0.15131578947368418
381,1096.2174940898344,0.14473684210526316
382,1099.014972419228,0.15131578947368418
383,1099.014972419228,0.1578947368421053
384,1101.812450748621,0.16447368421052633
385,1101.812450748621,0.1578947368421053
386,1104.6099290780144,0.17105263157894735
387,1104.6099290780144,0.16447368421052633
388,1107.4074074074074,0.17105263157894735
389,1110.2048857368004,0.17105263157894735
390,1113.0023640661939,0.17105263157894735
391,1113.0023640661939,0.17763157894736847
392,1115.799842395587,0.1842105263157895
393,1115.799842395587,0.1907894736842105
394,1115.799842395587,0.17763157894736847
395,1118.5973207249804,0.19736842105263153
396,1118.5973207249804,0.20394736842105265
397,1118.5973207249804,0.1907894736842105
398,1121.3947990543734,0.23684210526315785
399,1121.3947990543734,0.20394736842105265
400,1121.3947990543734,0.23026315789473684
401,1121.3947990543734,0.22368421052631582
402,1121.3947990543734,0.21052631578947367
403,1121.3947990543734,0.2171052631578947
404,1124.1922773837669,0.24342105263157898
405,1124.1922773837669,0.23684210526315785
406,1124.1922773837669,0.25
407,1126.9897557131599,0.256578947368421
408,1126.9897557131599,0.26973684210526316
409,1126.9897557131599,0.25
410,1126.9897557131599,0.26315789473684215
411,1129.7872340425533,0.26973684210526316
412,1129.7872340425533,0.3157894736842105
413,1129.7872340425533,0.2894736842105263
414,1129.7872340425533,0.29605263157894735
415,1129.7872340425533,0.2828947368421053
416,1129.7872340425533,0.3092105263157895
417,1129.7872340425533,0.3026315789473685
418,1129.7872340425533,0.2763157894736842
419,1132.5847123719464,0.3157894736842105
420,1132.5847123719464,0.3223684210526315
421,1132.5847123719464,0.32894736842105265
422,1132.5847123719464,0.3355263157894737
423,1132.5847123719464,0.3421052631578947
424,1135.3821907013398,0.3421052631578947
425,1135.3821907013398,0.381578947368421
426,1135.3821907013398,0.375
427,1135.3821907013398,0.3486842105263158
428,1135.3821907013398,0.368421052631579
429,1135.3821907013398,0.36184210526315785
430,1135.3821907013398,0.35526315789473684
431,1138.1796690307328,0.381578947368421
432,1138.1796690307328,0.4013157894736842
433,1138.1796690307328,0.38815789473684215
434,1138.1796690307328,0.39473684210526316
435,1140.9771473601263,0.4078947368421053
436,1140.9771473601263,0.4013157894736842
437,1140.9771473601263,0.4144736842105263
438,1143.7746256895193,0.4342105263157895
439,1143.7746256895193,0.4276315789473685
440,1143.7746256895193,0.42105263157894735
441,1143.7746256895193,0.4144736842105263
442,1146.5721040189123,0.4605263157894737
443,1146.5721040189123,0.4671052631578947
444,1146.5721040189123,0.4407894736842105
445,1146.5721040189123,0.4736842105263158
446,1146.5721040189123,0.4342105263157895
447,1146.5721040189123,0.45394736842105265
448,1146.5721040189123,0.4473684210526315
449,1149.3695823483058,0.4736842105263158
450,1149.3695823483058,0.48026315789473684
451,1149.3695823483058,0.48684210526315785
452,1149.3695823483058,0.493421052631579
453,1149.3695823483058,0.5
454,1149.3695823483058,0.506578947368421
455,1152.1670606776988,0.5394736842105263
456,1152.1670606776988,0.506578947368421
457,1152.1670606776988,0.513157894736842
458,1152.1670606776988,0.5197368421052632
459,1152.1670606776988,0.5263157894736843
460,1152.1670606776988,0.5328947368421053
461,1152.1670606776988,0.5460526315789473
462,1152.1670606776988,0.5526315789473684
463,1152.1670606776988,0.5592105263157895
464,1152.1670606776988,0.5789473684210527
465,1152.1670606776988,0.5723684210526316
466,1152.1670606776988,0.5657894736842105
467,1154.9645390070923,0.611842105263158
468,1154.9645390070923,0.5789473684210527
