,wavenumbers,absorbance
0,452.797478329393,0.013157894736842146
1,455.5949566587865,0.013157894736842146
2,458.3924349881795,0.013157894736842146
3,461.189913317573,0.013157894736842146
4,463.987391646966,0.013157894736842146
5,466.78486997635946,0.013157894736842146
6,466.78486997635946,0.019736842105263164
7,469.5823483057525,0.019736842105263164
8,472.37982663514595,0.019736842105263164
9,475.17730496453896,0.019736842105263164
10,477.97478329393243,0.019736842105263164
11,480.77226162332545,0.019736842105263164
12,483.56973995271846,0.019736842105263164
13,486.36721828211193,0.019736842105263164
14,489.16469661150495,0.019736842105263164
15,491.9621749408984,0.019736842105263164
16,494.75965327029144,0.019736842105263164
17,497.5571315996849,0.02631578947368418
18,497.5571315996849,0.019736842105263164
19,500.3546099290779,0.019736842105263164
20,500.3546099290779,0.02631578947368418
21,503.1520882584714,0.019736842105263164
22,505.9495665878644,0.019736842105263164
23,508.7470449172579,0.019736842105263164
24,511.5445232466509,0.02631578947368418
25,511.5445232466509,0.019736842105263164
26,514.3420015760439,0.019736842105263164
27,514.3420015760439,0.02631578947368418
28,517.1394799054374,0.019736842105263164
29,519.9369582348304,0.019736842105263164
30,522.7344365642239,0.019736842105263164
31,525.5319148936169,0.019736842105263164
32,525.5319148936169,0.013157894736842146
33,528.3293932230104,0.019736842105263164
34,531.1268715524034,0.019736842105263164
35,533.9243498817968,0.019736842105263164
36,536.7218282111899,0.019736842105263164
37,539.5193065405833,0.019736842105263164
38,539.5193065405833,0.03289473684210531
39,539.5193065405833,0.02631578947368418
40,542.3167848699763,0.03289473684210531
41,542.3167848699763,0.03947368421052633
42,545.1142631993694,0.046052631578947345
43,545.1142631993694,0.03947368421052633
44,547.9117415287628,0.046052631578947345
45,547.9117415287628,0.052631578947368474
46,550.7092198581558,0.052631578947368474
47,550.7092198581558,0.05921052631578949
48,550.7092198581558,0.06578947368421051
49,553.5066981875493,0.07236842105263153
50,553.5066981875493,0.06578947368421051
51,556.3041765169423,0.07236842105263153
52,556.3041765169423,0.07894736842105265
53,559.1016548463358,0.07894736842105265
54,559.1016548463358,0.08552631578947367
55,561.8991331757288,0.08552631578947367
56,564.6966115051223,0.09210526315789469
57,564.6966115051223,0.08552631578947367
58,567.4940898345153,0.09210526315789469
59,570.2915681639088,0.09210526315789469
60,570.2915681639088,0.09868421052631582
61,573.0890464933018,0.09210526315789469
62,573.0890464933018,0.09868421052631582
63,575.8865248226948,0.09210526315789469
64,578.6840031520883,0.08552631578947367
65,578.6840031520883,0.09210526315789469
66,581.4814814814813,0.08552631578947367
67,581.4814814814813,0.07894736842105265
68,584.2789598108748,0.07894736842105265
69,587.0764381402678,0.07894736842105265
70,589.8739164696613,0.07236842105263153
71,589.8739164696613,0.07894736842105265
72,592.6713947990543,0.07236842105263153
73,595.4688731284477,0.07236842105263153
74,595.4688731284477,0.06578947368421051
75,598.2663514578408,0.05921052631578949
76,598.2663514578408,0.06578947368421051
77,601.0638297872342,0.05921052631578949
78,601.0638297872342,0.052631578947368474
79,603.8613081166272,0.052631578947368474
80,606.6587864460207,0.052631578947368474
81,606.6587864460207,0.046052631578947345
82,606.6587864460207,0.03947368421052633
83,609.4562647754137,0.03947368421052633
84,612.2537431048067,0.03289473684210531
85,612.2537431048067,0.02631578947368418
86,612.2537431048067,0.03947368421052633
87,615.0512214342002,0.02631578947368418
88,617.8486997635932,0.02631578947368418
89,620.6461780929867,0.019736842105263164
90,620.6461780929867,0.02631578947368418
91,623.4436564223797,0.019736842105263164
92,626.2411347517732,0.019736842105263164
93,629.0386130811662,0.019736842105263164
94,631.8360914105597,0.019736842105263164
95,631.8360914105597,0.02631578947368418
96,634.6335697399527,0.02631578947368418
97,637.4310480693462,0.02631578947368418
98,640.2285263987392,0.02631578947368418
99,643.0260047281322,0.02631578947368418
100,645.8234830575257,0.02631578947368418
101,648.6209613869187,0.02631578947368418
102,651.4184397163122,0.02631578947368418
103,654.2159180457052,0.02631578947368418
104,657.0133963750986,0.02631578947368418
105,659.8108747044917,0.02631578947368418
106,662.6083530338851,0.02631578947368418
107,665.4058313632781,0.02631578947368418
108,668.2033096926716,0.02631578947368418
109,671.0007880220646,0.02631578947368418
110,673.7982663514576,0.02631578947368418
111,676.5957446808511,0.02631578947368418
112,679.3932230102441,0.02631578947368418
113,682.1907013396376,0.02631578947368418
114,684.9881796690306,0.02631578947368418
115,684.9881796690306,0.03289473684210531
116,687.7856579984241,0.03289473684210531
117,690.5831363278171,0.03289473684210531
118,693.3806146572106,0.03289473684210531
119,696.1780929866036,0.03289473684210531
120,698.9755713159971,0.03289473684210531
121,701.7730496453901,0.03289473684210531
122,704.5705279747831,0.03289473684210531
123,707.3680063041766,0.03289473684210531
124,707.3680063041766,0.03947368421052633
125,710.1654846335696,0.03947368421052633
126,712.962962962963,0.03947368421052633
127,712.962962962963,0.046052631578947345
128,715.7604412923561,0.046052631578947345
129,718.5579196217495,0.046052631578947345
130,718.5579196217495,0.052631578947368474
131,721.3553979511425,0.05921052631578949
132,721.3553979511425,0.052631578947368474
133,724.152876280536,0.06578947368421051
134,724.152876280536,0.05921052631578949
135,726.950354609929,0.06578947368421051
136,729.7478329393225,0.07236842105263153
137,729.7478329393225,0.06578947368421051
138,732.5453112687155,0.07236842105263153
139,732.5453112687155,0.07894736842105265
140,735.3427895981085,0.07894736842105265
141,735.3427895981085,0.08552631578947367
142,738.140267927502,0.08552631578947367
143,740.937746256895,0.07894736842105265
144,740.937746256895,0.08552631578947367
145,743.7352245862885,0.07894736842105265
146,746.5327029156815,0.07894736842105265
147,749.330181245075,0.07894736842105265
148,749.330181245075,0.07236842105263153
149,752.127659574468,0.07236842105263153
150,754.9251379038615,0.07236842105263153
151,757.7226162332545,0.07236842105263153
152,760.520094562648,0.07236842105263153
153,763.317572892041,0.06578947368421051
154,763.317572892041,0.07236842105263153
155,766.115051221434,0.06578947368421051
156,768.9125295508275,0.06578947368421051
157,771.7100078802205,0.06578947368421051
158,774.507486209614,0.06578947368421051
159,777.304964539007,0.06578947368421051
160,780.1024428684004,0.06578947368421051
161,780.1024428684004,0.07236842105263153
162,782.8999211977934,0.07236842105263153
163,785.6973995271869,0.07894736842105265
164,785.6973995271869,0.07236842105263153
165,788.4948778565799,0.07894736842105265
166,788.4948778565799,0.08552631578947367
167,791.2923561859734,0.09210526315789469
168,791.2923561859734,0.08552631578947367
169,794.0898345153664,0.10526315789473684
170,794.0898345153664,0.09210526315789469
171,794.0898345153664,0.09868421052631582
172,796.8873128447594,0.10526315789473684
173,799.6847911741529,0.11842105263157898
174,799.6847911741529,0.11184210526315785
175,799.6847911741529,0.10526315789473684
176,802.4822695035459,0.125
177,802.4822695035459,0.11842105263157898
178,805.2797478329394,0.125
179,805.2797478329394,0.13815789473684215
180,805.2797478329394,0.13157894736842102
181,808.0772261623324,0.14473684210526316
182,808.0772261623324,0.13815789473684215
183,810.8747044917259,0.16447368421052633
184,810.8747044917259,0.14473684210526316
185,810.8747044917259,0.1578947368421053
186,810.8747044917259,0.15131578947368418
187,813.6721828211189,0.17763157894736847
188,813.6721828211189,0.17105263157894735
189,813.6721828211189,0.16447368421052633
190,816.4696611505124,0.17763157894736847
191,816.4696611505124,0.1907894736842105
192,816.4696611505124,0.1842105263157895
193,819.2671394799054,0.21052631578947367
194,819.2671394799054,0.19736842105263153
195,819.2671394799054,0.1907894736842105
196,819.2671394799054,0.2171052631578947
197,819.2671394799054,0.22368421052631582
198,819.2671394799054,0.20394736842105265
199,822.0646178092989,0.23684210526315785
200,822.0646178092989,0.22368421052631582
201,822.0646178092989,0.23026315789473684
202,824.8620961386919,0.23684210526315785
203,824.8620961386919,0.24342105263157898
204,824.8620961386919,0.256578947368421
205,824.8620961386919,0.26315789473684215
206,824.8620961386919,0.25
207,827.6595744680849,0.26315789473684215
208,827.6595744680849,0.26973684210526316
209,830.4570527974784,0.26973684210526316
210,830.4570527974784,0.2828947368421053
211,830.4570527974784,0.2763157894736842
212,833.2545311268714,0.2828947368421053
213,836.0520094562648,0.26973684210526316
214,836.0520094562648,0.2828947368421053
215,836.0520094562648,0.2763157894736842
216,838.8494877856579,0.26973684210526316
217,838.8494877856579,0.26315789473684215
218,838.8494877856579,0.256578947368421
219,841.6469661150513,0.25
220,841.6469661150513,0.23684210526315785
221,841.6469661150513,0.256578947368421
222,841.6469661150513,0.22368421052631582
223,841.6469661150513,0.23026315789473684
224,841.6469661150513,0.24342105263157898
225,844.4444444444443,0.22368421052631582
226,844.4444444444443,0.21052631578947367
227,844.4444444444443,0.20394736842105265
228,844.4444444444443,0.2171052631578947
229,847.2419227738378,0.1907894736842105
230,847.2419227738378,0.19736842105263153
231,847.2419227738378,0.1842105263157895
232,847.2419227738378,0.20394736842105265
233,850.0394011032308,0.17105263157894735
234,850.0394011032308,0.17763157894736847
235,850.0394011032308,0.16447368421052633
236,850.0394011032308,0.1842105263157895
237,850.0394011032308,0.1578947368421053
238,852.8368794326243,0.14473684210526316
239,852.8368794326243,0.1578947368421053
240,852.8368794326243,0.15131578947368418
241,855.6343577620173,0.13815789473684215
242,855.6343577620173,0.14473684210526316
243,855.6343577620173,0.13157894736842102
244,858.4318360914103,0.125
245,858.4318360914103,0.13157894736842102
246,861.2293144208038,0.125
247,861.2293144208038,0.11842105263157898
248,861.2293144208038,0.11184210526315785
249,864.0267927501968,0.10526315789473684
250,864.0267927501968,0.11184210526315785
251,866.8242710795903,0.09868421052631582
252,866.8242710795903,0.10526315789473684
253,869.6217494089833,0.09868421052631582
254,872.4192277383768,0.09868421052631582
255,875.2167060677698,0.125
256,875.2167060677698,0.10526315789473684
257,875.2167060677698,0.11184210526315785
258,875.2167060677698,0.11842105263157898
259,875.2167060677698,0.09868421052631582
260,878.0141843971633,0.13815789473684215
261,878.0141843971633,0.125
262,878.0141843971633,0.14473684210526316
263,878.0141843971633,0.15131578947368418
264,878.0141843971633,0.13157894736842102
265,878.0141843971633,0.1578947368421053
266,880.8116627265563,0.17763157894736847
267,880.8116627265563,0.1907894736842105
268,880.8116627265563,0.1578947368421053
269,880.8116627265563,0.17105263157894735
270,880.8116627265563,0.21052631578947367
271,880.8116627265563,0.16447368421052633
272,880.8116627265563,0.2171052631578947
273,880.8116627265563,0.23684210526315785
274,880.8116627265563,0.23026315789473684
275,880.8116627265563,0.22368421052631582
276,880.8116627265563,0.19736842105263153
277,880.8116627265563,0.20394736842105265
278,880.8116627265563,0.1842105263157895
279,883.6091410559497,0.256578947368421
280,883.6091410559497,0.23684210526315785
281,883.6091410559497,0.25
282,883.6091410559497,0.24342105263157898
283,886.4066193853428,0.22368421052631582
284,886.4066193853428,0.24342105263157898
285,886.4066193853428,0.23684210526315785
286,886.4066193853428,0.25
287,886.4066193853428,0.256578947368421
288,886.4066193853428,0.23026315789473684
289,886.4066193853428,0.2171052631578947
290,889.2040977147362,0.1842105263157895
291,889.2040977147362,0.21052631578947367
292,889.2040977147362,0.2171052631578947
293,889.2040977147362,0.1907894736842105
294,889.2040977147362,0.19736842105263153
295,889.2040977147362,0.20394736842105265
296,892.0015760441293,0.16447368421052633
297,892.0015760441293,0.11842105263157898
298,892.0015760441293,0.1842105263157895
299,892.0015760441293,0.13815789473684215
300,892.0015760441293,0.13157894736842102
301,892.0015760441293,0.17763157894736847
302,892.0015760441293,0.125
303,892.0015760441293,0.11184210526315785
304,892.0015760441293,0.1578947368421053
305,892.0015760441293,0.14473684210526316
306,892.0015760441293,0.17105263157894735
307,892.0015760441293,0.15131578947368418
308,894.7990543735223,0.10526315789473684
309,894.7990543735223,0.09210526315789469
310,894.7990543735223,0.08552631578947367
311,894.7990543735223,0.11184210526315785
312,894.7990543735223,0.09868421052631582
313,897.5965327029157,0.07236842105263153
314,897.5965327029157,0.07894736842105265
315,897.5965327029157,0.08552631578947367
316,897.5965327029157,0.06578947368421051
317,897.5965327029157,0.05921052631578949
318,900.3940110323088,0.052631578947368474
319,900.3940110323088,0.05921052631578949
320,903.1914893617022,0.052631578947368474
321,905.9889676910952,0.052631578947368474
322,908.7864460204887,0.052631578947368474
323,911.5839243498817,0.05921052631578949
324,911.5839243498817,0.052631578947368474
325,914.3814026792752,0.05921052631578949
326,917.1788810086682,0.05921052631578949
327,919.9763593380617,0.05921052631578949
328,922.7738376674547,0.05921052631578949
329,925.5713159968477,0.05921052631578949
330,928.3687943262412,0.05921052631578949
331,931.1662726556342,0.05921052631578949
332,933.9637509850277,0.05921052631578949
333,936.7612293144207,0.05921052631578949
334,936.7612293144207,0.052631578947368474
335,939.5587076438142,0.052631578947368474
336,942.3561859732072,0.052631578947368474
337,945.1536643026006,0.052631578947368474
338,947.9511426319937,0.052631578947368474
339,950.7486209613871,0.052631578947368474
340,953.5460992907801,0.052631578947368474
341,953.5460992907801,0.05921052631578949
342,956.3435776201732,0.05921052631578949
343,959.1410559495666,0.05921052631578949
344,959.1410559495666,0.06578947368421051
345,961.9385342789597,0.06578947368421051
346,964.7360126083531,0.07236842105263153
347,964.7360126083531,0.06578947368421051
348,967.5334909377461,0.07236842105263153
349,967.5334909377461,0.07894736842105265
350,970.3309692671396,0.07894736842105265
351,973.1284475965326,0.07894736842105265
352,975.9259259259261,0.07894736842105265
353,978.7234042553191,0.07894736842105265
354,981.5208825847126,0.07894736842105265
355,984.3183609141056,0.07894736842105265
356,987.1158392434986,0.07894736842105265
357,989.9133175728921,0.07894736842105265
358,992.7107959022851,0.07894736842105265
359,995.5082742316786,0.07894736842105265
360,998.3057525610716,0.07894736842105265
361,1001.103230890465,0.07894736842105265
362,1003.9007092198581,0.07894736842105265
363,1006.6981875492515,0.07894736842105265
364,1009.4956658786446,0.07894736842105265
365,1012.293144208038,0.07894736842105265
366,1015.090622537431,0.07894736842105265
367,1017.8881008668241,0.07894736842105265
368,1020.6855791962175,0.07894736842105265
369,1023.4830575256105,0.07894736842105265
370,1023.4830575256105,0.08552631578947367
371,1026.280535855004,0.08552631578947367
372,1026.280535855004,0.09210526315789469
373,1029.078014184397,0.09210526315789469
374,1029.078014184397,0.09868421052631582
375,1031.8754925137905,0.09868421052631582
376,1034.6729708431835,0.09868421052631582
377,1037.470449172577,0.09210526315789469
378,1037.470449172577,0.09868421052631582
379,1040.26792750197,0.09210526315789469
380,1040.26792750197,0.08552631578947367
381,1040.26792750197,0.07894736842105265
382,1043.0654058313635,0.07894736842105265
383,1043.0654058313635,0.07236842105263153
384,1045.8628841607565,0.06578947368421051
385,1045.8628841607565,0.07236842105263153
386,1048.6603624901495,0.06578947368421051
387,1048.6603624901495,0.05921052631578949
388,1051.457840819543,0.05921052631578949
389,1054.255319148936,0.05921052631578949
390,1057.0527974783295,0.06578947368421051
391,1057.0527974783295,0.05921052631578949
392,1059.8502758077225,0.07236842105263153
393,1059.8502758077225,0.06578947368421051
394,1062.647754137116,0.07894736842105265
395,1062.647754137116,0.07236842105263153
396,1065.445232466509,0.07894736842105265
397,1065.445232466509,0.08552631578947367
398,1068.2427107959024,0.08552631578947367
399,1068.2427107959024,0.09210526315789469
400,1071.0401891252955,0.09210526315789469
401,1071.0401891252955,0.09868421052631582
402,1073.837667454689,0.10526315789473684
403,1073.837667454689,0.09868421052631582
404,1076.635145784082,0.10526315789473684
405,1076.635145784082,0.11184210526315785
406,1079.432624113475,0.11184210526315785
407,1079.432624113475,0.11842105263157898
408,1082.2301024428684,0.11842105263157898
409,1085.0275807722614,0.11842105263157898
410,1087.825059101655,0.11842105263157898
411,1090.622537431048,0.11842105263157898
412,1093.4200157604414,0.11842105263157898
413,1093.4200157604414,0.11184210526315785
414,1096.2174940898344,0.09868421052631582
415,1096.2174940898344,0.10526315789473684
416,1096.2174940898344,0.11184210526315785
417,1099.014972419228,0.09210526315789469
418,1099.014972419228,0.09868421052631582
419,1101.812450748621,0.08552631578947367
420,1101.812450748621,0.07894736842105265
421,1101.812450748621,0.09210526315789469
422,1104.6099290780144,0.06578947368421051
423,1104.6099290780144,0.07236842105263153
424,1104.6099290780144,0.07894736842105265
425,1104.6099290780144,0.05921052631578949
426,1107.4074074074074,0.052631578947368474
427,1107.4074074074074,0.05921052631578949
428,1107.4074074074074,0.046052631578947345
429,1110.2048857368004,0.046052631578947345
430,1110.2048857368004,0.03947368421052633
431,1113.0023640661939,0.046052631578947345
432,1113.0023640661939,0.03947368421052633
433,1115.799842395587,0.052631578947368474
434,1115.799842395587,0.046052631578947345
435,1118.5973207249804,0.05921052631578949
436,1118.5973207249804,0.052631578947368474
437,1121.3947990543734,0.06578947368421051
438,1121.3947990543734,0.05921052631578949
439,1121.3947990543734,0.07894736842105265
440,1121.3947990543734,0.08552631578947367
441,1121.3947990543734,0.07236842105263153
442,1124.1922773837669,0.08552631578947367
443,1124.1922773837669,0.09210526315789469
444,1126.9897557131599,0.09210526315789469
445,1129.7872340425533,0.08552631578947367
446,1129.7872340425533,0.09210526315789469
447,1132.5847123719464,0.08552631578947367
448,1135.3821907013398,0.07894736842105265
449,1135.3821907013398,0.08552631578947367
450,1138.1796690307328,0.07236842105263153
451,1138.1796690307328,0.07894736842105265
452,1140.9771473601263,0.06578947368421051
453,1140.9771473601263,0.07236842105263153
454,1143.7746256895193,0.06578947368421051
455,1146.5721040189123,0.05921052631578949
456,1146.5721040189123,0.06578947368421051
457,1149.3695823483058,0.05921052631578949
458,1152.1670606776988,0.052631578947368474
459,1152.1670606776988,0.05921052631578949
460,1154.9645390070923,0.052631578947368474
461,1157.7620173364853,0.052631578947368474
462,1160.5594956658788,0.046052631578947345
463,1160.5594956658788,0.052631578947368474
464,1163.3569739952718,0.046052631578947345
465,1166.1544523246653,0.046052631578947345
466,1168.9519306540583,0.046052631578947345
467,1171.7494089834518,0.046052631578947345
