,wavenumbers,absorbance
0,452.797478329393,0.07236842105263153
1,452.797478329393,0.06578947368421051
2,455.5949566587865,0.06578947368421051
3,458.3924349881795,0.06578947368421051
4,461.189913317573,0.06578947368421051
5,463.987391646966,0.05921052631578949
6,463.987391646966,0.06578947368421051
7,466.78486997635946,0.05921052631578949
8,469.5823483057525,0.05921052631578949
9,472.37982663514595,0.05921052631578949
10,475.17730496453896,0.05921052631578949
11,475.17730496453896,0.052631578947368474
12,477.97478329393243,0.052631578947368474
13,480.77226162332545,0.052631578947368474
14,483.56973995271846,0.052631578947368474
15,486.36721828211193,0.052631578947368474
16,489.16469661150495,0.052631578947368474
17,489.16469661150495,0.046052631578947345
18,491.9621749408984,0.046052631578947345
19,494.75965327029144,0.046052631578947345
20,497.5571315996849,0.046052631578947345
21,500.3546099290779,0.046052631578947345
22,503.1520882584714,0.046052631578947345
23,505.9495665878644,0.046052631578947345
24,508.7470449172579,0.046052631578947345
25,511.5445232466509,0.046052631578947345
26,514.3420015760439,0.046052631578947345
27,517.1394799054374,0.046052631578947345
28,519.9369582348304,0.046052631578947345
29,519.9369582348304,0.03947368421052633
30,522.7344365642239,0.03947368421052633
31,525.5319148936169,0.03947368421052633
32,528.3293932230104,0.03947368421052633
33,531.1268715524034,0.03947368421052633
34,533.9243498817968,0.03947368421052633
35,536.7218282111899,0.03947368421052633
36,539.5193065405833,0.03947368421052633
37,542.3167848699763,0.03947368421052633
38,545.1142631993694,0.03947368421052633
39,547.9117415287628,0.03947368421052633
40,550.7092198581558,0.03947368421052633
41,553.5066981875493,0.03947368421052633
42,556.3041765169423,0.03289473684210531
43,556.3041765169423,0.03947368421052633
44,559.1016548463358,0.03289473684210531
45,561.8991331757288,0.03289473684210531
46,564.6966115051223,0.03947368421052633
47,564.6966115051223,0.03289473684210531
48,567.4940898345153,0.03289473684210531
49,570.2915681639088,0.03289473684210531
50,573.0890464933018,0.03289473684210531
51,575.8865248226948,0.03289473684210531
52,578.6840031520883,0.03289473684210531
53,581.4814814814813,0.03289473684210531
54,584.2789598108748,0.03289473684210531
55,587.0764381402678,0.03289473684210531
56,589.8739164696613,0.03289473684210531
57,592.6713947990543,0.03289473684210531
58,595.4688731284477,0.03289473684210531
59,598.2663514578408,0.03289473684210531
60,601.0638297872342,0.03289473684210531
61,603.8613081166272,0.03289473684210531
62,606.6587864460207,0.03289473684210531
63,609.4562647754137,0.03289473684210531
64,612.2537431048067,0.03289473684210531
65,615.0512214342002,0.03289473684210531
66,617.8486997635932,0.03289473684210531
67,620.6461780929867,0.03289473684210531
68,623.4436564223797,0.03289473684210531
69,626.2411347517732,0.03289473684210531
70,629.0386130811662,0.03289473684210531
71,631.8360914105597,0.03289473684210531
72,631.8360914105597,0.03947368421052633
73,634.6335697399527,0.03289473684210531
74,637.4310480693462,0.03289473684210531
75,637.4310480693462,0.03947368421052633
76,640.2285263987392,0.03947368421052633
77,643.0260047281322,0.03947368421052633
78,645.8234830575257,0.03947368421052633
79,648.6209613869187,0.03947368421052633
80,651.4184397163122,0.03947368421052633
81,654.2159180457052,0.03947368421052633
82,657.0133963750986,0.03947368421052633
83,659.8108747044917,0.03947368421052633
84,662.6083530338851,0.03947368421052633
85,665.4058313632781,0.03947368421052633
86,668.2033096926716,0.03947368421052633
87,671.0007880220646,0.03289473684210531
88,671.0007880220646,0.03947368421052633
89,673.7982663514576,0.03289473684210531
90,673.7982663514576,0.03947368421052633
91,676.5957446808511,0.03947368421052633
92,676.5957446808511,0.03289473684210531
93,679.3932230102441,0.03947368421052633
94,682.1907013396376,0.03947368421052633
95,684.9881796690306,0.03947368421052633
96,687.7856579984241,0.052631578947368474
97,687.7856579984241,0.046052631578947345
98,687.7856579984241,0.05921052631578949
99,687.7856579984241,0.03947368421052633
100,690.5831363278171,0.07236842105263153
101,690.5831363278171,0.06578947368421051
102,690.5831363278171,0.07894736842105265
103,690.5831363278171,0.08552631578947367
104,690.5831363278171,0.05921052631578949
105,693.3806146572106,0.11184210526315785
106,693.3806146572106,0.125
107,693.3806146572106,0.08552631578947367
108,693.3806146572106,0.11842105263157898
109,693.3806146572106,0.1578947368421053
110,693.3806146572106,0.15131578947368418
111,693.3806146572106,0.09210526315789469
112,693.3806146572106,0.14473684210526316
113,693.3806146572106,0.09868421052631582
114,693.3806146572106,0.13815789473684215
115,693.3806146572106,0.13157894736842102
116,693.3806146572106,0.10526315789473684
117,696.1780929866036,0.1578947368421053
118,698.9755713159971,0.13157894736842102
119,698.9755713159971,0.11184210526315785
120,698.9755713159971,0.15131578947368418
121,698.9755713159971,0.14473684210526316
122,698.9755713159971,0.13815789473684215
123,698.9755713159971,0.11842105263157898
124,698.9755713159971,0.1578947368421053
125,698.9755713159971,0.125
126,701.7730496453901,0.10526315789473684
127,701.7730496453901,0.09210526315789469
128,701.7730496453901,0.11184210526315785
129,701.7730496453901,0.09868421052631582
130,704.5705279747831,0.07894736842105265
131,704.5705279747831,0.08552631578947367
132,704.5705279747831,0.07236842105263153
133,704.5705279747831,0.09210526315789469
134,707.3680063041766,0.05921052631578949
135,707.3680063041766,0.07236842105263153
136,707.3680063041766,0.052631578947368474
137,707.3680063041766,0.06578947368421051
138,710.1654846335696,0.052631578947368474
139,710.1654846335696,0.046052631578947345
140,712.962962962963,0.046052631578947345
141,715.7604412923561,0.046052631578947345
142,715.7604412923561,0.052631578947368474
143,718.5579196217495,0.052631578947368474
144,721.3553979511425,0.05921052631578949
145,721.3553979511425,0.052631578947368474
146,724.152876280536,0.05921052631578949
147,726.950354609929,0.05921052631578949
148,729.7478329393225,0.06578947368421051
149,729.7478329393225,0.05921052631578949
150,732.5453112687155,0.07236842105263153
151,732.5453112687155,0.08552631578947367
152,732.5453112687155,0.07894736842105265
153,732.5453112687155,0.06578947368421051
154,735.3427895981085,0.09210526315789469
155,735.3427895981085,0.08552631578947367
156,735.3427895981085,0.09868421052631582
157,738.140267927502,0.09868421052631582
158,738.140267927502,0.10526315789473684
159,738.140267927502,0.11842105263157898
160,738.140267927502,0.11184210526315785
161,740.937746256895,0.11842105263157898
162,740.937746256895,0.125
163,743.7352245862885,0.125
164,746.5327029156815,0.125
165,746.5327029156815,0.11842105263157898
166,749.330181245075,0.11842105263157898
167,749.330181245075,0.10526315789473684
168,749.330181245075,0.11184210526315785
169,752.127659574468,0.10526315789473684
170,752.127659574468,0.09868421052631582
171,754.9251379038615,0.09868421052631582
172,754.9251379038615,0.09210526315789469
173,757.7226162332545,0.08552631578947367
174,757.7226162332545,0.09210526315789469
175,760.520094562648,0.07894736842105265
176,760.520094562648,0.08552631578947367
177,763.317572892041,0.06578947368421051
178,763.317572892041,0.07894736842105265
179,763.317572892041,0.07236842105263153
180,766.115051221434,0.06578947368421051
181,766.115051221434,0.05921052631578949
182,768.9125295508275,0.05921052631578949
183,771.7100078802205,0.05921052631578949
184,774.507486209614,0.07236842105263153
185,774.507486209614,0.06578947368421051
186,774.507486209614,0.05921052631578949
187,777.304964539007,0.07236842105263153
188,777.304964539007,0.07894736842105265
189,780.1024428684004,0.07236842105263153
190,780.1024428684004,0.06578947368421051
191,780.1024428684004,0.07894736842105265
192,782.8999211977934,0.06578947368421051
193,785.6973995271869,0.05921052631578949
194,785.6973995271869,0.06578947368421051
195,788.4948778565799,0.052631578947368474
196,788.4948778565799,0.05921052631578949
197,791.2923561859734,0.052631578947368474
198,794.0898345153664,0.052631578947368474
199,796.8873128447594,0.052631578947368474
200,799.6847911741529,0.052631578947368474
201,799.6847911741529,0.05921052631578949
202,802.4822695035459,0.05921052631578949
203,805.2797478329394,0.05921052631578949
204,808.0772261623324,0.05921052631578949
205,810.8747044917259,0.05921052631578949
206,813.6721828211189,0.05921052631578949
207,816.4696611505124,0.05921052631578949
208,816.4696611505124,0.052631578947368474
209,819.2671394799054,0.046052631578947345
210,819.2671394799054,0.052631578947368474
211,822.0646178092989,0.046052631578947345
212,824.8620961386919,0.046052631578947345
213,827.6595744680849,0.046052631578947345
214,830.4570527974784,0.046052631578947345
215,833.2545311268714,0.046052631578947345
216,836.0520094562648,0.046052631578947345
217,838.8494877856579,0.046052631578947345
218,841.6469661150513,0.046052631578947345
219,844.4444444444443,0.046052631578947345
220,847.2419227738378,0.046052631578947345
221,850.0394011032308,0.046052631578947345
222,852.8368794326243,0.046052631578947345
223,855.6343577620173,0.046052631578947345
224,858.4318360914103,0.046052631578947345
225,861.2293144208038,0.046052631578947345
226,864.0267927501968,0.046052631578947345
227,866.8242710795903,0.046052631578947345
228,866.8242710795903,0.052631578947368474
229,869.6217494089833,0.052631578947368474
230,872.4192277383768,0.052631578947368474
231,875.2167060677698,0.05921052631578949
232,875.2167060677698,0.052631578947368474
233,878.0141843971633,0.05921052631578949
234,880.8116627265563,0.05921052631578949
235,883.6091410559497,0.05921052631578949
236,886.4066193853428,0.05921052631578949
237,886.4066193853428,0.06578947368421051
238,889.2040977147362,0.06578947368421051
239,889.2040977147362,0.07236842105263153
240,892.0015760441293,0.07894736842105265
241,892.0015760441293,0.07236842105263153
242,894.7990543735223,0.08552631578947367
243,894.7990543735223,0.07894736842105265
244,897.5965327029157,0.09868421052631582
245,897.5965327029157,0.08552631578947367
246,897.5965327029157,0.09210526315789469
247,900.3940110323088,0.10526315789473684
248,900.3940110323088,0.09868421052631582
249,903.1914893617022,0.11184210526315785
250,903.1914893617022,0.10526315789473684
251,905.9889676910952,0.11184210526315785
252,905.9889676910952,0.11842105263157898
253,908.7864460204887,0.11842105263157898
254,911.5839243498817,0.10526315789473684
255,911.5839243498817,0.11184210526315785
256,911.5839243498817,0.11842105263157898
257,914.3814026792752,0.10526315789473684
258,914.3814026792752,0.09868421052631582
259,917.1788810086682,0.09210526315789469
260,917.1788810086682,0.09868421052631582
261,917.1788810086682,0.08552631578947367
262,919.9763593380617,0.08552631578947367
263,919.9763593380617,0.07894736842105265
264,922.7738376674547,0.06578947368421051
265,922.7738376674547,0.07894736842105265
266,922.7738376674547,0.07236842105263153
267,925.5713159968477,0.06578947368421051
268,928.3687943262412,0.05921052631578949
269,928.3687943262412,0.06578947368421051
270,931.1662726556342,0.05921052631578949
271,933.9637509850277,0.05921052631578949
272,936.7612293144207,0.05921052631578949
273,939.5587076438142,0.05921052631578949
274,942.3561859732072,0.05921052631578949
275,945.1536643026006,0.05921052631578949
276,945.1536643026006,0.052631578947368474
277,947.9511426319937,0.052631578947368474
278,950.7486209613871,0.052631578947368474
279,953.5460992907801,0.052631578947368474
280,956.3435776201732,0.052631578947368474
281,959.1410559495666,0.052631578947368474
282,961.9385342789597,0.05921052631578949
283,961.9385342789597,0.052631578947368474
284,964.7360126083531,0.05921052631578949
285,967.5334909377461,0.05921052631578949
286,970.3309692671396,0.05921052631578949
287,973.1284475965326,0.05921052631578949
288,973.1284475965326,0.052631578947368474
289,975.9259259259261,0.052631578947368474
290,978.7234042553191,0.052631578947368474
291,978.7234042553191,0.046052631578947345
292,981.5208825847126,0.046052631578947345
293,984.3183609141056,0.046052631578947345
294,987.1158392434986,0.046052631578947345
295,989.9133175728921,0.046052631578947345
296,992.7107959022851,0.052631578947368474
297,992.7107959022851,0.046052631578947345
298,995.5082742316786,0.052631578947368474
299,998.3057525610716,0.052631578947368474
300,1001.103230890465,0.052631578947368474
301,1003.9007092198581,0.05921052631578949
302,1003.9007092198581,0.052631578947368474
303,1006.6981875492515,0.05921052631578949
304,1009.4956658786446,0.05921052631578949
305,1012.293144208038,0.06578947368421051
306,1012.293144208038,0.05921052631578949
307,1015.090622537431,0.06578947368421051
308,1017.8881008668241,0.07236842105263153
309,1017.8881008668241,0.06578947368421051
310,1020.6855791962175,0.07236842105263153
311,1020.6855791962175,0.07894736842105265
312,1023.4830575256105,0.07894736842105265
313,1023.4830575256105,0.08552631578947367
314,1026.280535855004,0.08552631578947367
315,1029.078014184397,0.07894736842105265
316,1029.078014184397,0.08552631578947367
317,1031.8754925137905,0.07894736842105265
318,1031.8754925137905,0.07236842105263153
319,1034.6729708431835,0.07236842105263153
320,1037.470449172577,0.07236842105263153
321,1040.26792750197,0.07236842105263153
322,1043.0654058313635,0.07894736842105265
323,1043.0654058313635,0.07236842105263153
324,1045.8628841607565,0.07894736842105265
325,1048.6603624901495,0.09210526315789469
326,1048.6603624901495,0.08552631578947367
327,1048.6603624901495,0.07894736842105265
328,1051.457840819543,0.09868421052631582
329,1051.457840819543,0.09210526315789469
330,1054.255319148936,0.09868421052631582
331,1054.255319148936,0.11842105263157898
332,1054.255319148936,0.10526315789473684
333,1054.255319148936,0.11184210526315785
334,1057.0527974783295,0.13815789473684215
335,1057.0527974783295,0.13157894736842102
336,1057.0527974783295,0.125
337,1057.0527974783295,0.11842105263157898
338,1059.8502758077225,0.17105263157894735
339,1059.8502758077225,0.15131578947368418
340,1059.8502758077225,0.14473684210526316
341,1059.8502758077225,0.16447368421052633
342,1059.8502758077225,0.17763157894736847
343,1059.8502758077225,0.1578947368421053
344,1059.8502758077225,0.1907894736842105
345,1059.8502758077225,0.13815789473684215
346,1059.8502758077225,0.1842105263157895
347,1062.647754137116,0.1907894736842105
348,1062.647754137116,0.19736842105263153
349,1062.647754137116,0.20394736842105265
350,1062.647754137116,0.2171052631578947
351,1062.647754137116,0.23026315789473684
352,1062.647754137116,0.22368421052631582
353,1062.647754137116,0.21052631578947367
354,1065.445232466509,0.2763157894736842
355,1065.445232466509,0.26315789473684215
356,1065.445232466509,0.25
357,1065.445232466509,0.26973684210526316
358,1065.445232466509,0.23026315789473684
359,1065.445232466509,0.24342105263157898
360,1065.445232466509,0.23684210526315785
361,1065.445232466509,0.256578947368421
362,1068.2427107959024,0.2763157894736842
363,1068.2427107959024,0.26315789473684215
364,1068.2427107959024,0.256578947368421
365,1068.2427107959024,0.26973684210526316
366,1071.0401891252955,0.256578947368421
367,1071.0401891252955,0.25
368,1071.0401891252955,0.2171052631578947
369,1071.0401891252955,0.23684210526315785
370,1071.0401891252955,0.22368421052631582
371,1071.0401891252955,0.24342105263157898
372,1071.0401891252955,0.23026315789473684
373,1073.837667454689,0.17763157894736847
374,1073.837667454689,0.17105263157894735
375,1073.837667454689,0.14473684210526316
376,1073.837667454689,0.1578947368421053
377,1073.837667454689,0.20394736842105265
378,1073.837667454689,0.1842105263157895
379,1073.837667454689,0.19736842105263153
380,1073.837667454689,0.21052631578947367
381,1073.837667454689,0.13815789473684215
382,1073.837667454689,0.1907894736842105
383,1073.837667454689,0.16447368421052633
384,1073.837667454689,0.15131578947368418
385,1076.635145784082,0.11842105263157898
386,1076.635145784082,0.13157894736842102
387,1076.635145784082,0.125
388,1076.635145784082,0.13815789473684215
389,1079.432624113475,0.09868421052631582
390,1079.432624113475,0.11842105263157898
391,1079.432624113475,0.09210526315789469
392,1079.432624113475,0.11184210526315785
393,1079.432624113475,0.10526315789473684
394,1082.2301024428684,0.09210526315789469
395,1082.2301024428684,0.08552631578947367
396,1085.0275807722614,0.08552631578947367
397,1085.0275807722614,0.07894736842105265
398,1085.0275807722614,0.07236842105263153
399,1087.825059101655,0.07236842105263153
400,1090.622537431048,0.06578947368421051
401,1090.622537431048,0.07236842105263153
402,1093.4200157604414,0.06578947368421051
403,1096.2174940898344,0.06578947368421051
404,1099.014972419228,0.06578947368421051
405,1101.812450748621,0.06578947368421051
406,1104.6099290780144,0.06578947368421051
407,1107.4074074074074,0.06578947368421051
408,1110.2048857368004,0.06578947368421051
409,1113.0023640661939,0.05921052631578949
410,1113.0023640661939,0.06578947368421051
411,1115.799842395587,0.05921052631578949
412,1118.5973207249804,0.05921052631578949
413,1121.3947990543734,0.05921052631578949
414,1124.1922773837669,0.05921052631578949
415,1126.9897557131599,0.05921052631578949
416,1129.7872340425533,0.05921052631578949
417,1132.5847123719464,0.05921052631578949
418,1135.3821907013398,0.05921052631578949
419,1138.1796690307328,0.05921052631578949
420,1140.9771473601263,0.05921052631578949
421,1143.7746256895193,0.05921052631578949
422,1146.5721040189123,0.05921052631578949
423,1149.3695823483058,0.05921052631578949
424,1152.1670606776988,0.05921052631578949
425,1154.9645390070923,0.05921052631578949
426,1157.7620173364853,0.05921052631578949
427,1160.5594956658788,0.05921052631578949
428,1163.3569739952718,0.05921052631578949
429,1166.1544523246653,0.05921052631578949
430,1168.9519306540583,0.05921052631578949
431,1171.7494089834518,0.05921052631578949
432,1174.5468873128448,0.05921052631578949
433,1177.3443656422378,0.05921052631578949
434,1180.1418439716313,0.05921052631578949
435,1182.9393223010243,0.05921052631578949
436,1185.7368006304177,0.052631578947368474
437,1185.7368006304177,0.05921052631578949
438,1188.5342789598108,0.052631578947368474
439,1191.3317572892042,0.052631578947368474
440,1194.1292356185972,0.052631578947368474
441,1196.9267139479907,0.052631578947368474
442,1199.7241922773837,0.052631578947368474
443,1202.5216706067772,0.052631578947368474
444,1205.3191489361702,0.052631578947368474
445,1208.1166272655632,0.052631578947368474
446,1210.9141055949567,0.052631578947368474
447,1213.7115839243497,0.052631578947368474
448,1216.5090622537432,0.052631578947368474
449,1216.5090622537432,0.05921052631578949
450,1219.3065405831362,0.05921052631578949
451,1222.1040189125297,0.05921052631578949
452,1224.9014972419227,0.05921052631578949
453,1227.6989755713162,0.05921052631578949
454,1230.4964539007092,0.05921052631578949
455,1230.4964539007092,0.06578947368421051
456,1233.2939322301027,0.06578947368421051
457,1236.0914105594957,0.06578947368421051
458,1238.8888888888887,0.06578947368421051
459,1241.6863672182822,0.06578947368421051
460,1244.4838455476752,0.06578947368421051
461,1247.2813238770686,0.06578947368421051
462,1250.0788022064617,0.06578947368421051
463,1252.8762805358551,0.06578947368421051
464,1255.6737588652481,0.07236842105263153
465,1255.6737588652481,0.06578947368421051
