,wavenumbers,absorbance
0,452.797478329393,0.06578947368421051
1,452.797478329393,0.07236842105263153
2,455.5949566587865,0.06578947368421051
3,458.3924349881795,0.06578947368421051
4,461.189913317573,0.06578947368421051
5,463.987391646966,0.06578947368421051
6,463.987391646966,0.05921052631578949
7,466.78486997635946,0.05921052631578949
8,469.5823483057525,0.05921052631578949
9,472.37982663514595,0.05921052631578949
10,475.17730496453896,0.05921052631578949
11,477.97478329393243,0.05921052631578949
12,477.97478329393243,0.052631578947368474
13,480.77226162332545,0.052631578947368474
14,483.56973995271846,0.052631578947368474
15,486.36721828211193,0.052631578947368474
16,489.16469661150495,0.052631578947368474
17,491.9621749408984,0.052631578947368474
18,494.75965327029144,0.052631578947368474
19,497.5571315996849,0.052631578947368474
20,500.3546099290779,0.052631578947368474
21,503.1520882584714,0.052631578947368474
22,505.9495665878644,0.052631578947368474
23,508.7470449172579,0.052631578947368474
24,511.5445232466509,0.052631578947368474
25,514.3420015760439,0.052631578947368474
26,517.1394799054374,0.052631578947368474
27,519.9369582348304,0.052631578947368474
28,522.7344365642239,0.052631578947368474
29,525.5319148936169,0.052631578947368474
30,528.3293932230104,0.052631578947368474
31,531.1268715524034,0.052631578947368474
32,533.9243498817968,0.052631578947368474
33,536.7218282111899,0.052631578947368474
34,539.5193065405833,0.052631578947368474
35,542.3167848699763,0.052631578947368474
36,545.1142631993694,0.052631578947368474
37,547.9117415287628,0.052631578947368474
38,550.7092198581558,0.052631578947368474
39,553.5066981875493,0.052631578947368474
40,556.3041765169423,0.052631578947368474
41,559.1016548463358,0.052631578947368474
42,561.8991331757288,0.052631578947368474
43,561.8991331757288,0.046052631578947345
44,564.6966115051223,0.046052631578947345
45,567.4940898345153,0.046052631578947345
46,570.2915681639088,0.046052631578947345
47,573.0890464933018,0.046052631578947345
48,575.8865248226948,0.046052631578947345
49,578.6840031520883,0.046052631578947345
50,578.6840031520883,0.03947368421052633
51,581.4814814814813,0.03947368421052633
52,584.2789598108748,0.03947368421052633
53,587.0764381402678,0.03289473684210531
54,587.0764381402678,0.03947368421052633
55,589.8739164696613,0.03289473684210531
56,592.6713947990543,0.03289473684210531
57,595.4688731284477,0.02631578947368418
58,595.4688731284477,0.03289473684210531
59,598.2663514578408,0.02631578947368418
60,601.0638297872342,0.02631578947368418
61,603.8613081166272,0.02631578947368418
62,606.6587864460207,0.02631578947368418
63,609.4562647754137,0.02631578947368418
64,612.2537431048067,0.02631578947368418
65,612.2537431048067,0.019736842105263164
66,615.0512214342002,0.019736842105263164
67,617.8486997635932,0.019736842105263164
68,620.6461780929867,0.019736842105263164
69,623.4436564223797,0.019736842105263164
70,626.2411347517732,0.019736842105263164
71,629.0386130811662,0.019736842105263164
72,631.8360914105597,0.019736842105263164
73,634.6335697399527,0.019736842105263164
74,637.4310480693462,0.019736842105263164
75,640.2285263987392,0.019736842105263164
76,643.0260047281322,0.019736842105263164
77,645.8234830575257,0.019736842105263164
78,648.6209613869187,0.019736842105263164
79,651.4184397163122,0.019736842105263164
80,654.2159180457052,0.019736842105263164
81,657.0133963750986,0.019736842105263164
82,659.8108747044917,0.019736842105263164
83,662.6083530338851,0.019736842105263164
84,665.4058313632781,0.019736842105263164
85,668.2033096926716,0.019736842105263164
86,671.0007880220646,0.019736842105263164
87,673.7982663514576,0.019736842105263164
88,676.5957446808511,0.019736842105263164
89,679.3932230102441,0.019736842105263164
90,682.1907013396376,0.019736842105263164
91,684.9881796690306,0.019736842105263164
92,687.7856579984241,0.019736842105263164
93,690.5831363278171,0.019736842105263164
94,693.3806146572106,0.019736842105263164
95,696.1780929866036,0.019736842105263164
96,698.9755713159971,0.019736842105263164
97,701.7730496453901,0.019736842105263164
98,704.5705279747831,0.019736842105263164
99,707.3680063041766,0.019736842105263164
100,710.1654846335696,0.019736842105263164
101,712.962962962963,0.019736842105263164
102,715.7604412923561,0.019736842105263164
103,718.5579196217495,0.019736842105263164
104,718.5579196217495,0.02631578947368418
105,721.3553979511425,0.02631578947368418
106,724.152876280536,0.02631578947368418
107,726.950354609929,0.02631578947368418
108,729.7478329393225,0.02631578947368418
109,732.5453112687155,0.02631578947368418
110,735.3427895981085,0.02631578947368418
111,738.140267927502,0.02631578947368418
112,740.937746256895,0.02631578947368418
113,743.7352245862885,0.02631578947368418
114,746.5327029156815,0.02631578947368418
115,749.330181245075,0.02631578947368418
116,752.127659574468,0.02631578947368418
117,754.9251379038615,0.02631578947368418
118,754.9251379038615,0.03289473684210531
119,757.7226162332545,0.03289473684210531
120,760.520094562648,0.03289473684210531
121,763.317572892041,0.03289473684210531
122,766.115051221434,0.03289473684210531
123,768.9125295508275,0.03947368421052633
124,768.9125295508275,0.03289473684210531
125,771.7100078802205,0.03947368421052633
126,774.507486209614,0.03947368421052633
127,774.507486209614,0.046052631578947345
128,777.304964539007,0.046052631578947345
129,780.1024428684004,0.052631578947368474
130,780.1024428684004,0.046052631578947345
131,782.8999211977934,0.052631578947368474
132,785.6973995271869,0.05921052631578949
133,785.6973995271869,0.052631578947368474
134,788.4948778565799,0.06578947368421051
135,788.4948778565799,0.05921052631578949
136,791.2923561859734,0.06578947368421051
137,794.0898345153664,0.07236842105263153
138,794.0898345153664,0.06578947368421051
139,796.8873128447594,0.07236842105263153
140,796.8873128447594,0.07894736842105265
141,799.6847911741529,0.08552631578947367
142,799.6847911741529,0.07894736842105265
143,802.4822695035459,0.08552631578947367
144,802.4822695035459,0.09210526315789469
145,805.2797478329394,0.09210526315789469
146,805.2797478329394,0.09868421052631582
147,808.0772261623324,0.09868421052631582
148,810.8747044917259,0.09868421052631582
149,810.8747044917259,0.10526315789473684
150,813.6721828211189,0.11184210526315785
151,813.6721828211189,0.10526315789473684
152,816.4696611505124,0.11184210526315785
153,819.2671394799054,0.125
154,819.2671394799054,0.11184210526315785
155,819.2671394799054,0.11842105263157898
156,822.0646178092989,0.125
157,824.8620961386919,0.125
158,824.8620961386919,0.13157894736842102
159,824.8620961386919,0.13815789473684215
160,827.6595744680849,0.14473684210526316
161,827.6595744680849,0.13815789473684215
162,830.4570527974784,0.14473684210526316
163,830.4570527974784,0.15131578947368418
164,833.2545311268714,0.1578947368421053
165,833.2545311268714,0.15131578947368418
166,836.0520094562648,0.1578947368421053
167,836.0520094562648,0.16447368421052633
168,838.8494877856579,0.16447368421052633
169,841.6469661150513,0.17105263157894735
170,841.6469661150513,0.16447368421052633
171,844.4444444444443,0.17105263157894735
172,847.2419227738378,0.17105263157894735
173,850.0394011032308,0.17105263157894735
174,852.8368794326243,0.17763157894736847
175,852.8368794326243,0.17105263157894735
176,855.6343577620173,0.17763157894736847
177,858.4318360914103,0.17763157894736847
178,861.2293144208038,0.17763157894736847
179,861.2293144208038,0.17105263157894735
180,864.0267927501968,0.17105263157894735
181,866.8242710795903,0.17105263157894735
182,866.8242710795903,0.16447368421052633
183,869.6217494089833,0.16447368421052633
184,869.6217494089833,0.1578947368421053
185,872.4192277383768,0.1578947368421053
186,875.2167060677698,0.1578947368421053
187,878.0141843971633,0.1578947368421053
188,878.0141843971633,0.15131578947368418
189,880.8116627265563,0.15131578947368418
190,880.8116627265563,0.14473684210526316
191,883.6091410559497,0.13815789473684215
192,883.6091410559497,0.14473684210526316
193,886.4066193853428,0.125
194,886.4066193853428,0.13815789473684215
195,886.4066193853428,0.13157894736842102
196,889.2040977147362,0.125
197,892.0015760441293,0.11842105263157898
198,892.0015760441293,0.125
199,894.7990543735223,0.11842105263157898
200,897.5965327029157,0.125
201,897.5965327029157,0.11842105263157898
202,900.3940110323088,0.125
203,903.1914893617022,0.125
204,903.1914893617022,0.13157894736842102
205,905.9889676910952,0.13157894736842102
206,905.9889676910952,0.13815789473684215
207,908.7864460204887,0.13815789473684215
208,911.5839243498817,0.13815789473684215
209,911.5839243498817,0.14473684210526316
210,914.3814026792752,0.14473684210526316
211,917.1788810086682,0.14473684210526316
212,917.1788810086682,0.15131578947368418
213,919.9763593380617,0.15131578947368418
214,919.9763593380617,0.1578947368421053
215,922.7738376674547,0.1578947368421053
216,922.7738376674547,0.16447368421052633
217,925.5713159968477,0.16447368421052633
218,928.3687943262412,0.17105263157894735
219,928.3687943262412,0.16447368421052633
220,931.1662726556342,0.17763157894736847
221,931.1662726556342,0.17105263157894735
222,933.9637509850277,0.1842105263157895
223,933.9637509850277,0.17763157894736847
224,936.7612293144207,0.1907894736842105
225,936.7612293144207,0.1842105263157895
226,936.7612293144207,0.19736842105263153
227,939.5587076438142,0.19736842105263153
228,942.3561859732072,0.20394736842105265
229,942.3561859732072,0.19736842105263153
230,945.1536643026006,0.20394736842105265
231,947.9511426319937,0.19736842105263153
232,947.9511426319937,0.20394736842105265
233,950.7486209613871,0.1907894736842105
234,950.7486209613871,0.19736842105263153
235,953.5460992907801,0.1842105263157895
236,953.5460992907801,0.1907894736842105
237,953.5460992907801,0.17763157894736847
238,953.5460992907801,0.17105263157894735
239,956.3435776201732,0.17105263157894735
240,956.3435776201732,0.16447368421052633
241,956.3435776201732,0.1578947368421053
242,959.1410559495666,0.1578947368421053
243,959.1410559495666,0.15131578947368418
244,959.1410559495666,0.14473684210526316
245,961.9385342789597,0.14473684210526316
246,961.9385342789597,0.125
247,961.9385342789597,0.13157894736842102
248,961.9385342789597,0.13815789473684215
249,964.7360126083531,0.11842105263157898
250,964.7360126083531,0.125
251,967.5334909377461,0.11842105263157898
252,967.5334909377461,0.11184210526315785
253,970.3309692671396,0.11184210526315785
254,973.1284475965326,0.11842105263157898
255,973.1284475965326,0.11184210526315785
256,975.9259259259261,0.11842105263157898
257,978.7234042553191,0.125
258,978.7234042553191,0.11842105263157898
259,978.7234042553191,0.13157894736842102
260,981.5208825847126,0.13815789473684215
261,981.5208825847126,0.13157894736842102
262,984.3183609141056,0.14473684210526316
263,984.3183609141056,0.13815789473684215
264,987.1158392434986,0.14473684210526316
265,987.1158392434986,0.15131578947368418
266,989.9133175728921,0.15131578947368418
267,992.7107959022851,0.15131578947368418
268,995.5082742316786,0.15131578947368418
269,998.3057525610716,0.14473684210526316
270,998.3057525610716,0.15131578947368418
271,1001.103230890465,0.14473684210526316
272,1003.9007092198581,0.14473684210526316
273,1003.9007092198581,0.13815789473684215
274,1006.6981875492515,0.13815789473684215
275,1009.4956658786446,0.13815789473684215
276,1009.4956658786446,0.14473684210526316
277,1012.293144208038,0.15131578947368418
278,1012.293144208038,0.14473684210526316
279,1015.090622537431,0.1578947368421053
280,1015.090622537431,0.15131578947368418
281,1017.8881008668241,0.16447368421052633
282,1017.8881008668241,0.17763157894736847
283,1017.8881008668241,0.17105263157894735
284,1017.8881008668241,0.1578947368421053
285,1020.6855791962175,0.1907894736842105
286,1020.6855791962175,0.1842105263157895
287,1020.6855791962175,0.17763157894736847
288,1023.4830575256105,0.20394736842105265
289,1023.4830575256105,0.19736842105263153
290,1023.4830575256105,0.21052631578947367
291,1023.4830575256105,0.1907894736842105
292,1026.280535855004,0.21052631578947367
293,1026.280535855004,0.2171052631578947
294,1026.280535855004,0.22368421052631582
295,1029.078014184397,0.22368421052631582
296,1029.078014184397,0.23684210526315785
297,1029.078014184397,0.23026315789473684
298,1031.8754925137905,0.23684210526315785
299,1031.8754925137905,0.24342105263157898
300,1034.6729708431835,0.24342105263157898
301,1034.6729708431835,0.25
302,1037.470449172577,0.25
303,1040.26792750197,0.24342105263157898
304,1040.26792750197,0.25
305,1043.0654058313635,0.24342105263157898
306,1045.8628841607565,0.24342105263157898
307,1045.8628841607565,0.23684210526315785
308,1048.6603624901495,0.23684210526315785
309,1051.457840819543,0.24342105263157898
310,1051.457840819543,0.23684210526315785
311,1054.255319148936,0.256578947368421
312,1054.255319148936,0.25
313,1054.255319148936,0.24342105263157898
314,1057.0527974783295,0.26315789473684215
315,1057.0527974783295,0.26973684210526316
316,1057.0527974783295,0.2763157894736842
317,1057.0527974783295,0.256578947368421
318,1059.8502758077225,0.29605263157894735
319,1059.8502758077225,0.3092105263157895
320,1059.8502758077225,0.2828947368421053
321,1059.8502758077225,0.3026315789473685
322,1059.8502758077225,0.2894736842105263
323,1059.8502758077225,0.2763157894736842
324,1062.647754137116,0.3092105263157895
325,1062.647754137116,0.3157894736842105
326,1062.647754137116,0.3223684210526315
327,1065.445232466509,0.36184210526315785
328,1065.445232466509,0.3486842105263158
329,1065.445232466509,0.3355263157894737
330,1065.445232466509,0.35526315789473684
331,1065.445232466509,0.32894736842105265
332,1065.445232466509,0.3223684210526315
333,1065.445232466509,0.3421052631578947
334,1068.2427107959024,0.36184210526315785
335,1068.2427107959024,0.368421052631579
336,1068.2427107959024,0.375
337,1068.2427107959024,0.381578947368421
338,1071.0401891252955,0.4013157894736842
339,1071.0401891252955,0.381578947368421
340,1071.0401891252955,0.39473684210526316
341,1071.0401891252955,0.4078947368421053
342,1071.0401891252955,0.38815789473684215
343,1073.837667454689,0.4078947368421053
344,1073.837667454689,0.4407894736842105
345,1073.837667454689,0.4144736842105263
346,1073.837667454689,0.4671052631578947
347,1073.837667454689,0.42105263157894735
348,1073.837667454689,0.4605263157894737
349,1073.837667454689,0.4276315789473685
350,1073.837667454689,0.45394736842105265
351,1073.837667454689,0.4473684210526315
352,1073.837667454689,0.4342105263157895
353,1076.635145784082,0.4736842105263158
354,1076.635145784082,0.493421052631579
355,1076.635145784082,0.4671052631578947
356,1076.635145784082,0.5
357,1076.635145784082,0.506578947368421
358,1076.635145784082,0.48684210526315785
359,1076.635145784082,0.48026315789473684
360,1079.432624113475,0.5263157894736843
361,1079.432624113475,0.5789473684210527
362,1079.432624113475,0.5328947368421053
363,1079.432624113475,0.5197368421052632
364,1079.432624113475,0.5394736842105263
365,1079.432624113475,0.5460526315789473
366,1079.432624113475,0.513157894736842
367,1079.432624113475,0.506578947368421
368,1079.432624113475,0.5526315789473684
369,1079.432624113475,0.5592105263157895
370,1079.432624113475,0.5657894736842105
371,1079.432624113475,0.5723684210526316
372,1079.432624113475,0.5855263157894737
373,1079.432624113475,0.5921052631578947
374,1082.2301024428684,0.625
375,1082.2301024428684,0.618421052631579
376,1082.2301024428684,0.638157894736842
377,1082.2301024428684,0.5921052631578947
378,1082.2301024428684,0.6052631578947368
379,1082.2301024428684,0.5986842105263157
380,1082.2301024428684,0.611842105263158
381,1082.2301024428684,0.631578947368421
382,1085.0275807722614,0.7236842105263157
383,1085.0275807722614,0.7171052631578947
384,1085.0275807722614,0.7105263157894737
385,1085.0275807722614,0.7039473684210527
386,1085.0275807722614,0.6973684210526316
387,1085.0275807722614,0.6907894736842105
388,1085.0275807722614,0.6842105263157895
389,1085.0275807722614,0.6513157894736843
390,1085.0275807722614,0.6776315789473684
391,1085.0275807722614,0.6447368421052632
392,1085.0275807722614,0.638157894736842
393,1085.0275807722614,0.6710526315789473
394,1085.0275807722614,0.6644736842105263
395,1085.0275807722614,0.6578947368421053
396,1087.825059101655,0.7631578947368421
397,1087.825059101655,0.736842105263158
398,1087.825059101655,0.743421052631579
399,1087.825059101655,0.75
400,1087.825059101655,0.756578947368421
401,1087.825059101655,0.7302631578947368
402,1087.825059101655,0.7236842105263157
403,1087.825059101655,0.7697368421052632
404,1090.622537431048,0.8355263157894737
405,1090.622537431048,0.7960526315789473
406,1090.622537431048,0.8026315789473684
407,1090.622537431048,0.7828947368421053
408,1090.622537431048,0.7763157894736842
409,1090.622537431048,0.8092105263157895
410,1090.622537431048,0.8157894736842105
411,1090.622537431048,0.7894736842105263
412,1090.622537431048,0.8223684210526316
413,1090.622537431048,0.8289473684210527
414,1090.622537431048,0.8552631578947368
415,1090.622537431048,0.7697368421052632
416,1090.622537431048,0.8486842105263158
417,1090.622537431048,0.8421052631578947
418,1090.622537431048,0.8618421052631579
419,1093.4200157604414,0.8618421052631579
420,1093.4200157604414,0.875
421,1093.4200157604414,0.881578947368421
422,1093.4200157604414,0.8947368421052632
423,1093.4200157604414,0.868421052631579
424,1093.4200157604414,0.8881578947368421
425,1096.2174940898344,0.9210526315789473
426,1096.2174940898344,0.9473684210526316
427,1096.2174940898344,0.9144736842105263
428,1096.2174940898344,0.9276315789473684
429,1096.2174940898344,0.9539473684210527
430,1096.2174940898344,0.9078947368421053
431,1096.2174940898344,0.9407894736842105
432,1096.2174940898344,0.9342105263157895
433,1096.2174940898344,0.9013157894736842
434,1096.2174940898344,0.9605263157894737
435,1096.2174940898344,0.8947368421052632
436,1099.014972419228,0.9802631578947368
437,1099.014972419228,0.9605263157894737
438,1099.014972419228,0.9671052631578947
439,1099.014972419228,0.9736842105263158
440,1101.812450748621,0.9868421052631579
441,1101.812450748621,0.993421052631579
442,1101.812450748621,0.9802631578947368
443,1104.6099290780144,0.993421052631579
444,1104.6099290780144,1.0
445,1110.2048857368004,0.993421052631579
446,1110.2048857368004,1.0
447,1113.0023640661939,0.9868421052631579
448,1113.0023640661939,0.993421052631579
449,1115.799842395587,0.9539473684210527
450,1115.799842395587,0.9802631578947368
451,1115.799842395587,0.9671052631578947
452,1115.799842395587,0.9736842105263158
453,1115.799842395587,0.9868421052631579
454,1115.799842395587,0.9605263157894737
455,1118.5973207249804,0.9407894736842105
456,1118.5973207249804,0.9539473684210527
457,1118.5973207249804,0.9342105263157895
458,1118.5973207249804,0.9473684210526316
459,1121.3947990543734,0.9144736842105263
460,1121.3947990543734,0.9210526315789473
461,1121.3947990543734,0.9078947368421053
462,1121.3947990543734,0.9276315789473684
463,1121.3947990543734,0.9013157894736842
464,1121.3947990543734,0.8947368421052632
465,1121.3947990543734,0.9342105263157895
466,1124.1922773837669,0.8881578947368421
467,1124.1922773837669,0.881578947368421
468,1124.1922773837669,0.8947368421052632
469,1126.9897557131599,0.868421052631579
470,1126.9897557131599,0.875
471,1126.9897557131599,0.881578947368421
472,1129.7872340425533,0.8486842105263158
473,1129.7872340425533,0.8618421052631579
474,1129.7872340425533,0.868421052631579
