,wavenumbers,absorbance
0,452.797478329393,0.046052631578947345
1,455.5949566587865,0.046052631578947345
2,455.5949566587865,0.03947368421052633
3,458.3924349881795,0.03947368421052633
4,461.189913317573,0.03947368421052633
5,463.987391646966,0.03947368421052633
6,466.78486997635946,0.03947368421052633
7,469.5823483057525,0.03289473684210531
8,469.5823483057525,0.03947368421052633
9,472.37982663514595,0.03289473684210531
10,475.17730496453896,0.03289473684210531
11,477.97478329393243,0.03289473684210531
12,480.77226162332545,0.03289473684210531
13,483.56973995271846,0.03289473684210531
14,486.36721828211193,0.03289473684210531
15,489.16469661150495,0.03289473684210531
16,491.9621749408984,0.03289473684210531
17,494.75965327029144,0.03289473684210531
18,497.5571315996849,0.03289473684210531
19,500.3546099290779,0.03947368421052633
20,500.3546099290779,0.03289473684210531
21,503.1520882584714,0.03947368421052633
22,505.9495665878644,0.03947368421052633
23,508.7470449172579,0.046052631578947345
24,508.7470449172579,0.03947368421052633
25,511.5445232466509,0.046052631578947345
26,514.3420015760439,0.046052631578947345
27,517.1394799054374,0.046052631578947345
28,517.1394799054374,0.052631578947368474
29,519.9369582348304,0.052631578947368474
30,519.9369582348304,0.05921052631578949
31,522.7344365642239,0.05921052631578949
32,522.7344365642239,0.06578947368421051
33,525.5319148936169,0.08552631578947367
34,525.5319148936169,0.06578947368421051
35,525.5319148936169,0.07894736842105265
36,525.5319148936169,0.07236842105263153
37,528.3293932230104,0.08552631578947367
38,528.3293932230104,0.09868421052631582
39,528.3293932230104,0.09210526315789469
40,531.1268715524034,0.11184210526315785
41,531.1268715524034,0.09868421052631582
42,531.1268715524034,0.11842105263157898
43,531.1268715524034,0.10526315789473684
44,533.9243498817968,0.13815789473684215
45,533.9243498817968,0.11842105263157898
46,533.9243498817968,0.125
47,533.9243498817968,0.13157894736842102
48,536.7218282111899,0.13815789473684215
49,539.5193065405833,0.13815789473684215
50,539.5193065405833,0.13157894736842102
51,542.3167848699763,0.125
52,542.3167848699763,0.13157894736842102
53,545.1142631993694,0.11184210526315785
54,545.1142631993694,0.125
55,545.1142631993694,0.11842105263157898
56,547.9117415287628,0.11184210526315785
57,550.7092198581558,0.10526315789473684
58,550.7092198581558,0.11184210526315785
59,553.5066981875493,0.10526315789473684
60,553.5066981875493,0.09868421052631582
61,556.3041765169423,0.09210526315789469
62,556.3041765169423,0.09868421052631582
63,559.1016548463358,0.09210526315789469
64,559.1016548463358,0.08552631578947367
65,561.8991331757288,0.08552631578947367
66,561.8991331757288,0.07894736842105265
67,564.6966115051223,0.07894736842105265
68,564.6966115051223,0.07236842105263153
69,567.4940898345153,0.07236842105263153
70,567.4940898345153,0.06578947368421051
71,570.2915681639088,0.05921052631578949
72,570.2915681639088,0.06578947368421051
73,573.0890464933018,0.05921052631578949
74,575.8865248226948,0.052631578947368474
75,575.8865248226948,0.05921052631578949
76,578.6840031520883,0.046052631578947345
77,578.6840031520883,0.052631578947368474
78,581.4814814814813,0.046052631578947345
79,584.2789598108748,0.046052631578947345
80,587.0764381402678,0.046052631578947345
81,589.8739164696613,0.03947368421052633
82,589.8739164696613,0.046052631578947345
83,592.6713947990543,0.03947368421052633
84,595.4688731284477,0.03947368421052633
85,598.2663514578408,0.03947368421052633
86,601.0638297872342,0.03947368421052633
87,603.8613081166272,0.03947368421052633
88,606.6587864460207,0.03947368421052633
89,609.4562647754137,0.03947368421052633
90,612.2537431048067,0.046052631578947345
91,612.2537431048067,0.03947368421052633
92,615.0512214342002,0.046052631578947345
93,617.8486997635932,0.046052631578947345
94,620.6461780929867,0.03947368421052633
95,620.6461780929867,0.046052631578947345
96,623.4436564223797,0.03947368421052633
97,626.2411347517732,0.03947368421052633
98,626.2411347517732,0.03289473684210531
99,629.0386130811662,0.03289473684210531
100,631.8360914105597,0.03289473684210531
101,634.6335697399527,0.02631578947368418
102,634.6335697399527,0.03289473684210531
103,637.4310480693462,0.02631578947368418
104,640.2285263987392,0.02631578947368418
105,643.0260047281322,0.02631578947368418
106,643.0260047281322,0.03289473684210531
107,645.8234830575257,0.03289473684210531
108,648.6209613869187,0.03289473684210531
109,651.4184397163122,0.03289473684210531
110,654.2159180457052,0.03289473684210531
111,657.0133963750986,0.03289473684210531
112,657.0133963750986,0.03947368421052633
113,659.8108747044917,0.03947368421052633
114,662.6083530338851,0.046052631578947345
115,662.6083530338851,0.03947368421052633
116,665.4058313632781,0.046052631578947345
117,668.2033096926716,0.046052631578947345
118,671.0007880220646,0.046052631578947345
119,671.0007880220646,0.052631578947368474
120,673.7982663514576,0.052631578947368474
121,676.5957446808511,0.052631578947368474
122,676.5957446808511,0.05921052631578949
123,679.3932230102441,0.05921052631578949
124,679.3932230102441,0.06578947368421051
125,682.1907013396376,0.06578947368421051
126,682.1907013396376,0.07894736842105265
127,682.1907013396376,0.08552631578947367
128,682.1907013396376,0.09210526315789469
129,682.1907013396376,0.07236842105263153
130,684.9881796690306,0.09210526315789469
131,684.9881796690306,0.09868421052631582
132,684.9881796690306,0.10526315789473684
133,684.9881796690306,0.11842105263157898
134,684.9881796690306,0.11184210526315785
135,687.7856579984241,0.2171052631578947
136,687.7856579984241,0.15131578947368418
137,687.7856579984241,0.25
138,687.7856579984241,0.1578947368421053
139,687.7856579984241,0.24342105263157898
140,687.7856579984241,0.16447368421052633
141,687.7856579984241,0.17105263157894735
142,687.7856579984241,0.14473684210526316
143,687.7856579984241,0.23026315789473684
144,687.7856579984241,0.22368421052631582
145,687.7856579984241,0.1842105263157895
146,687.7856579984241,0.1907894736842105
147,687.7856579984241,0.19736842105263153
148,687.7856579984241,0.21052631578947367
149,687.7856579984241,0.20394736842105265
150,687.7856579984241,0.17763157894736847
151,687.7856579984241,0.256578947368421
152,687.7856579984241,0.23684210526315785
153,687.7856579984241,0.2894736842105263
154,687.7856579984241,0.13815789473684215
155,687.7856579984241,0.26315789473684215
156,687.7856579984241,0.2828947368421053
157,687.7856579984241,0.13157894736842102
158,687.7856579984241,0.11842105263157898
159,687.7856579984241,0.26973684210526316
160,687.7856579984241,0.3092105263157895
161,687.7856579984241,0.29605263157894735
162,687.7856579984241,0.3026315789473685
163,687.7856579984241,0.2763157894736842
164,687.7856579984241,0.125
165,690.5831363278171,0.4144736842105263
166,690.5831363278171,0.42105263157894735
167,690.5831363278171,0.4276315789473685
168,690.5831363278171,0.4342105263157895
169,690.5831363278171,0.3421052631578947
170,690.5831363278171,0.45394736842105265
171,690.5831363278171,0.4605263157894737
172,690.5831363278171,0.4671052631578947
173,690.5831363278171,0.4736842105263158
174,690.5831363278171,0.48026315789473684
175,690.5831363278171,0.48684210526315785
176,690.5831363278171,0.493421052631579
177,690.5831363278171,0.4407894736842105
178,690.5831363278171,0.4473684210526315
179,690.5831363278171,0.39473684210526316
180,690.5831363278171,0.4013157894736842
181,690.5831363278171,0.3355263157894737
182,690.5831363278171,0.38815789473684215
183,690.5831363278171,0.381578947368421
184,690.5831363278171,0.3092105263157895
185,690.5831363278171,0.375
186,690.5831363278171,0.5
187,690.5831363278171,0.368421052631579
188,690.5831363278171,0.3157894736842105
189,690.5831363278171,0.36184210526315785
190,690.5831363278171,0.3223684210526315
191,690.5831363278171,0.35526315789473684
192,690.5831363278171,0.32894736842105265
193,690.5831363278171,0.3486842105263158
194,690.5831363278171,0.4078947368421053
195,690.5831363278171,0.506578947368421
196,690.5831363278171,0.6052631578947368
197,690.5831363278171,0.5460526315789473
198,690.5831363278171,0.5723684210526316
199,690.5831363278171,0.5855263157894737
200,690.5831363278171,0.5263157894736843
201,690.5831363278171,0.5197368421052632
202,690.5831363278171,0.513157894736842
203,690.5831363278171,0.5921052631578947
204,690.5831363278171,0.5526315789473684
205,690.5831363278171,0.5394736842105263
206,690.5831363278171,0.5986842105263157
207,690.5831363278171,0.5592105263157895
208,690.5831363278171,0.5328947368421053
209,690.5831363278171,0.5657894736842105
210,690.5831363278171,0.5789473684210527
211,693.3806146572106,0.7171052631578947
212,693.3806146572106,0.8618421052631579
213,693.3806146572106,0.7236842105263157
214,693.3806146572106,0.875
215,693.3806146572106,0.7302631578947368
216,693.3806146572106,0.7105263157894737
217,693.3806146572106,0.881578947368421
218,693.3806146572106,0.7039473684210527
219,693.3806146572106,0.8881578947368421
220,693.3806146572106,0.6973684210526316
221,693.3806146572106,0.868421052631579
222,693.3806146572106,0.611842105263158
223,693.3806146572106,0.638157894736842
224,693.3806146572106,0.8486842105263158
225,693.3806146572106,0.7631578947368421
226,693.3806146572106,0.7828947368421053
227,693.3806146572106,0.756578947368421
228,693.3806146572106,0.7894736842105263
229,693.3806146572106,0.7960526315789473
230,693.3806146572106,0.625
231,693.3806146572106,0.75
232,693.3806146572106,0.743421052631579
233,693.3806146572106,0.8552631578947368
234,693.3806146572106,0.8026315789473684
235,693.3806146572106,0.8092105263157895
236,693.3806146572106,0.8157894736842105
237,693.3806146572106,0.8223684210526316
238,693.3806146572106,0.8289473684210527
239,693.3806146572106,0.8355263157894737
240,693.3806146572106,0.8421052631578947
241,693.3806146572106,0.618421052631579
242,693.3806146572106,0.6052631578947368
243,693.3806146572106,0.736842105263158
244,693.3806146572106,0.6907894736842105
245,693.3806146572106,0.8947368421052632
246,693.3806146572106,0.6842105263157895
247,693.3806146572106,1.0
248,693.3806146572106,0.6447368421052632
249,693.3806146572106,0.993421052631579
250,693.3806146572106,0.6513157894736843
251,693.3806146572106,0.9868421052631579
252,693.3806146572106,0.9802631578947368
253,693.3806146572106,0.9736842105263158
254,693.3806146572106,0.9671052631578947
255,693.3806146572106,0.9605263157894737
256,693.3806146572106,0.9539473684210527
257,693.3806146572106,0.9473684210526316
258,693.3806146572106,0.9407894736842105
259,693.3806146572106,0.631578947368421
260,693.3806146572106,0.9342105263157895
261,693.3806146572106,0.7697368421052632
262,693.3806146572106,0.7763157894736842
263,693.3806146572106,0.9210526315789473
264,693.3806146572106,0.9013157894736842
265,693.3806146572106,0.6578947368421053
266,693.3806146572106,0.9144736842105263
267,693.3806146572106,0.6776315789473684
268,693.3806146572106,0.6710526315789473
269,693.3806146572106,0.9078947368421053
270,693.3806146572106,0.9276315789473684
271,693.3806146572106,0.6644736842105263
272,696.1780929866036,0.9276315789473684
273,696.1780929866036,0.8947368421052632
274,696.1780929866036,0.993421052631579
275,696.1780929866036,0.9868421052631579
276,696.1780929866036,0.9802631578947368
277,696.1780929866036,0.9013157894736842
278,696.1780929866036,0.9671052631578947
279,696.1780929866036,0.9605263157894737
280,696.1780929866036,0.9078947368421053
281,696.1780929866036,0.9539473684210527
282,696.1780929866036,0.9473684210526316
283,696.1780929866036,0.8881578947368421
284,696.1780929866036,0.9144736842105263
285,696.1780929866036,0.9342105263157895
286,696.1780929866036,0.9210526315789473
287,696.1780929866036,0.9736842105263158
288,696.1780929866036,0.9407894736842105
289,696.1780929866036,1.0
290,698.9755713159971,0.7631578947368421
291,698.9755713159971,0.875
292,698.9755713159971,0.7697368421052632
293,698.9755713159971,0.868421052631579
294,698.9755713159971,0.7105263157894737
295,698.9755713159971,0.8618421052631579
296,698.9755713159971,0.5592105263157895
297,698.9755713159971,0.7171052631578947
298,698.9755713159971,0.6052631578947368
299,698.9755713159971,0.5526315789473684
300,698.9755713159971,0.7039473684210527
301,698.9755713159971,0.7236842105263157
302,698.9755713159971,0.8552631578947368
303,698.9755713159971,0.8486842105263158
304,698.9755713159971,0.8421052631578947
305,698.9755713159971,0.611842105263158
306,698.9755713159971,0.5460526315789473
307,698.9755713159971,0.618421052631579
308,698.9755713159971,0.8355263157894737
309,698.9755713159971,0.8289473684210527
310,698.9755713159971,0.8223684210526316
311,698.9755713159971,0.7302631578947368
312,698.9755713159971,0.5263157894736843
313,698.9755713159971,0.881578947368421
314,698.9755713159971,0.6907894736842105
315,698.9755713159971,0.638157894736842
316,698.9755713159971,0.6447368421052632
317,698.9755713159971,0.506578947368421
318,698.9755713159971,0.513157894736842
319,698.9755713159971,0.5
320,698.9755713159971,0.5986842105263157
321,698.9755713159971,0.493421052631579
322,698.9755713159971,0.5921052631578947
323,698.9755713159971,0.631578947368421
324,698.9755713159971,0.6973684210526316
325,698.9755713159971,0.5855263157894737
326,698.9755713159971,0.6578947368421053
327,698.9755713159971,0.5197368421052632
328,698.9755713159971,0.6644736842105263
329,698.9755713159971,0.5789473684210527
330,698.9755713159971,0.6710526315789473
331,698.9755713159971,0.6776315789473684
332,698.9755713159971,0.8881578947368421
333,698.9755713159971,0.6842105263157895
334,698.9755713159971,0.5723684210526316
335,698.9755713159971,0.6513157894736843
336,698.9755713159971,0.5394736842105263
337,698.9755713159971,0.5657894736842105
338,698.9755713159971,0.8157894736842105
339,698.9755713159971,0.736842105263158
340,698.9755713159971,0.8092105263157895
341,698.9755713159971,0.7960526315789473
342,698.9755713159971,0.5328947368421053
343,698.9755713159971,0.743421052631579
344,698.9755713159971,0.756578947368421
345,698.9755713159971,0.8026315789473684
346,698.9755713159971,0.625
347,698.9755713159971,0.75
348,698.9755713159971,0.7763157894736842
349,698.9755713159971,0.7828947368421053
350,698.9755713159971,0.7894736842105263
351,701.7730496453901,0.375
352,701.7730496453901,0.45394736842105265
353,701.7730496453901,0.381578947368421
354,701.7730496453901,0.3157894736842105
355,701.7730496453901,0.493421052631579
356,701.7730496453901,0.32894736842105265
357,701.7730496453901,0.368421052631579
358,701.7730496453901,0.38815789473684215
359,701.7730496453901,0.4605263157894737
360,701.7730496453901,0.36184210526315785
361,701.7730496453901,0.4144736842105263
362,701.7730496453901,0.35526315789473684
363,701.7730496453901,0.42105263157894735
364,701.7730496453901,0.3486842105263158
365,701.7730496453901,0.3223684210526315
366,701.7730496453901,0.3421052631578947
367,701.7730496453901,0.4671052631578947
368,701.7730496453901,0.48026315789473684
369,701.7730496453901,0.3355263157894737
370,701.7730496453901,0.4276315789473685
371,701.7730496453901,0.48684210526315785
372,701.7730496453901,0.4407894736842105
373,701.7730496453901,0.4736842105263158
374,701.7730496453901,0.4078947368421053
375,701.7730496453901,0.39473684210526316
376,701.7730496453901,0.4013157894736842
377,701.7730496453901,0.4473684210526315
378,701.7730496453901,0.4342105263157895
379,704.5705279747831,0.22368421052631582
380,704.5705279747831,0.23684210526315785
381,704.5705279747831,0.2171052631578947
382,704.5705279747831,0.1907894736842105
383,704.5705279747831,0.3092105263157895
384,704.5705279747831,0.25
385,704.5705279747831,0.3026315789473685
386,704.5705279747831,0.29605263157894735
387,704.5705279747831,0.2894736842105263
388,704.5705279747831,0.20394736842105265
389,704.5705279747831,0.21052631578947367
390,704.5705279747831,0.256578947368421
391,704.5705279747831,0.2763157894736842
392,704.5705279747831,0.2828947368421053
393,704.5705279747831,0.19736842105263153
394,704.5705279747831,0.26315789473684215
395,704.5705279747831,0.26973684210526316
396,704.5705279747831,0.23026315789473684
397,704.5705279747831,0.24342105263157898
398,704.5705279747831,0.3157894736842105
399,704.5705279747831,0.1842105263157895
400,707.3680063041766,0.06578947368421051
401,707.3680063041766,0.16447368421052633
402,707.3680063041766,0.11184210526315785
403,707.3680063041766,0.11842105263157898
404,707.3680063041766,0.09210526315789469
405,707.3680063041766,0.08552631578947367
406,707.3680063041766,0.1578947368421053
407,707.3680063041766,0.10526315789473684
408,707.3680063041766,0.17105263157894735
409,707.3680063041766,0.15131578947368418
410,707.3680063041766,0.125
411,707.3680063041766,0.13815789473684215
412,707.3680063041766,0.07236842105263153
413,707.3680063041766,0.14473684210526316
414,707.3680063041766,0.17763157894736847
415,707.3680063041766,0.1842105263157895
416,707.3680063041766,0.09868421052631582
417,707.3680063041766,0.13157894736842102
418,707.3680063041766,0.07894736842105265
419,710.1654846335696,0.046052631578947345
420,710.1654846335696,0.06578947368421051
421,710.1654846335696,0.05921052631578949
422,710.1654846335696,0.052631578947368474
423,712.962962962963,0.046052631578947345
424,712.962962962963,0.03289473684210531
425,712.962962962963,0.03947368421052633
426,715.7604412923561,0.03289473684210531
427,718.5579196217495,0.03947368421052633
428,718.5579196217495,0.03289473684210531
429,721.3553979511425,0.046052631578947345
430,721.3553979511425,0.03947368421052633
431,724.152876280536,0.052631578947368474
432,724.152876280536,0.046052631578947345
433,726.950354609929,0.052631578947368474
434,729.7478329393225,0.052631578947368474
435,729.7478329393225,0.06578947368421051
436,729.7478329393225,0.05921052631578949
437,732.5453112687155,0.09868421052631582
438,732.5453112687155,0.07236842105263153
439,732.5453112687155,0.07894736842105265
440,732.5453112687155,0.09210526315789469
441,732.5453112687155,0.08552631578947367
442,732.5453112687155,0.06578947368421051
443,735.3427895981085,0.10526315789473684
444,735.3427895981085,0.11184210526315785
445,735.3427895981085,0.09868421052631582
446,738.140267927502,0.14473684210526316
447,738.140267927502,0.13157894736842102
448,738.140267927502,0.13815789473684215
449,738.140267927502,0.11842105263157898
450,738.140267927502,0.16447368421052633
451,738.140267927502,0.15131578947368418
452,738.140267927502,0.17105263157894735
453,738.140267927502,0.125
454,738.140267927502,0.1578947368421053
455,740.937746256895,0.1907894736842105
456,740.937746256895,0.17105263157894735
457,740.937746256895,0.19736842105263153
458,740.937746256895,0.21052631578947367
459,740.937746256895,0.1842105263157895
460,740.937746256895,0.17763157894736847
461,740.937746256895,0.20394736842105265
462,743.7352245862885,0.23026315789473684
463,743.7352245862885,0.25
464,743.7352245862885,0.2171052631578947
465,743.7352245862885,0.22368421052631582
466,743.7352245862885,0.21052631578947367
467,743.7352245862885,0.23684210526315785
468,743.7352245862885,0.24342105263157898
469,746.5327029156815,0.26315789473684215
470,746.5327029156815,0.25
471,746.5327029156815,0.256578947368421
472,749.330181245075,0.29605263157894735
473,749.330181245075,0.2763157894736842
474,749.330181245075,0.26315789473684215
475,749.330181245075,0.26973684210526316
476,749.330181245075,0.2828947368421053
477,749.330181245075,0.2894736842105263
478,752.127659574468,0.3092105263157895
479,752.127659574468,0.29605263157894735
