,wavenumbers,absorbance
0,452.797478329393,0.03947368421052633
1,455.5949566587865,0.03947368421052633
2,458.3924349881795,0.03947368421052633
3,461.189913317573,0.03947368421052633
4,463.987391646966,0.03947368421052633
5,463.987391646966,0.046052631578947345
6,466.78486997635946,0.046052631578947345
7,469.5823483057525,0.046052631578947345
8,472.37982663514595,0.046052631578947345
9,475.17730496453896,0.046052631578947345
10,477.97478329393243,0.046052631578947345
11,480.77226162332545,0.046052631578947345
12,483.56973995271846,0.046052631578947345
13,486.36721828211193,0.052631578947368474
14,486.36721828211193,0.046052631578947345
15,489.16469661150495,0.046052631578947345
16,489.16469661150495,0.052631578947368474
17,491.9621749408984,0.046052631578947345
18,494.75965327029144,0.046052631578947345
19,497.5571315996849,0.046052631578947345
20,500.3546099290779,0.046052631578947345
21,503.1520882584714,0.046052631578947345
22,505.9495665878644,0.046052631578947345
23,508.7470449172579,0.046052631578947345
24,511.5445232466509,0.046052631578947345
25,514.3420015760439,0.046052631578947345
26,517.1394799054374,0.046052631578947345
27,519.9369582348304,0.046052631578947345
28,522.7344365642239,0.046052631578947345
29,525.5319148936169,0.046052631578947345
30,528.3293932230104,0.046052631578947345
31,531.1268715524034,0.046052631578947345
32,533.9243498817968,0.046052631578947345
33,536.7218282111899,0.046052631578947345
34,539.5193065405833,0.046052631578947345
35,542.3167848699763,0.046052631578947345
36,545.1142631993694,0.046052631578947345
37,547.9117415287628,0.046052631578947345
38,550.7092198581558,0.046052631578947345
39,553.5066981875493,0.046052631578947345
40,556.3041765169423,0.046052631578947345
41,559.1016548463358,0.046052631578947345
42,561.8991331757288,0.046052631578947345
43,564.6966115051223,0.046052631578947345
44,567.4940898345153,0.046052631578947345
45,570.2915681639088,0.046052631578947345
46,573.0890464933018,0.046052631578947345
47,575.8865248226948,0.046052631578947345
48,578.6840031520883,0.046052631578947345
49,581.4814814814813,0.046052631578947345
50,584.2789598108748,0.046052631578947345
51,587.0764381402678,0.046052631578947345
52,589.8739164696613,0.046052631578947345
53,592.6713947990543,0.046052631578947345
54,595.4688731284477,0.03947368421052633
55,595.4688731284477,0.046052631578947345
56,598.2663514578408,0.03947368421052633
57,598.2663514578408,0.046052631578947345
58,601.0638297872342,0.046052631578947345
59,603.8613081166272,0.046052631578947345
60,606.6587864460207,0.03947368421052633
61,606.6587864460207,0.046052631578947345
62,609.4562647754137,0.046052631578947345
63,612.2537431048067,0.046052631578947345
64,615.0512214342002,0.046052631578947345
65,617.8486997635932,0.046052631578947345
66,620.6461780929867,0.046052631578947345
67,620.6461780929867,0.03947368421052633
68,623.4436564223797,0.03947368421052633
69,626.2411347517732,0.03947368421052633
70,629.0386130811662,0.03947368421052633
71,631.8360914105597,0.03947368421052633
72,634.6335697399527,0.03947368421052633
73,637.4310480693462,0.03947368421052633
74,640.2285263987392,0.03947368421052633
75,643.0260047281322,0.03947368421052633
76,645.8234830575257,0.03947368421052633
77,648.6209613869187,0.03947368421052633
78,651.4184397163122,0.03947368421052633
79,654.2159180457052,0.03947368421052633
80,657.0133963750986,0.03947368421052633
81,657.0133963750986,0.03289473684210531
82,659.8108747044917,0.03289473684210531
83,662.6083530338851,0.03289473684210531
84,665.4058313632781,0.03289473684210531
85,668.2033096926716,0.03289473684210531
86,671.0007880220646,0.03289473684210531
87,673.7982663514576,0.03289473684210531
88,676.5957446808511,0.03289473684210531
89,679.3932230102441,0.03289473684210531
90,682.1907013396376,0.03289473684210531
91,684.9881796690306,0.03289473684210531
92,687.7856579984241,0.03289473684210531
93,690.5831363278171,0.03289473684210531
94,693.3806146572106,0.03289473684210531
95,696.1780929866036,0.03289473684210531
96,698.9755713159971,0.03289473684210531
97,701.7730496453901,0.03289473684210531
98,704.5705279747831,0.03289473684210531
99,707.3680063041766,0.03289473684210531
100,710.1654846335696,0.03289473684210531
101,712.962962962963,0.03289473684210531
102,715.7604412923561,0.03289473684210531
103,718.5579196217495,0.03289473684210531
104,718.5579196217495,0.03947368421052633
105,721.3553979511425,0.046052631578947345
106,721.3553979511425,0.03947368421052633
107,724.152876280536,0.046052631578947345
108,726.950354609929,0.046052631578947345
109,729.7478329393225,0.03947368421052633
110,729.7478329393225,0.046052631578947345
111,732.5453112687155,0.03947368421052633
112,735.3427895981085,0.03947368421052633
113,738.140267927502,0.03947368421052633
114,740.937746256895,0.03947368421052633
115,743.7352245862885,0.03947368421052633
116,743.7352245862885,0.046052631578947345
117,746.5327029156815,0.046052631578947345
118,749.330181245075,0.046052631578947345
119,752.127659574468,0.046052631578947345
120,754.9251379038615,0.052631578947368474
121,754.9251379038615,0.046052631578947345
122,757.7226162332545,0.052631578947368474
123,760.520094562648,0.052631578947368474
124,763.317572892041,0.052631578947368474
125,766.115051221434,0.052631578947368474
126,768.9125295508275,0.052631578947368474
127,771.7100078802205,0.046052631578947345
128,771.7100078802205,0.052631578947368474
129,774.507486209614,0.046052631578947345
130,777.304964539007,0.046052631578947345
131,780.1024428684004,0.046052631578947345
132,782.8999211977934,0.046052631578947345
133,782.8999211977934,0.03947368421052633
134,785.6973995271869,0.03947368421052633
135,788.4948778565799,0.03289473684210531
136,788.4948778565799,0.03947368421052633
137,791.2923561859734,0.03289473684210531
138,794.0898345153664,0.03289473684210531
139,796.8873128447594,0.03289473684210531
140,799.6847911741529,0.03289473684210531
141,802.4822695035459,0.03289473684210531
142,805.2797478329394,0.03289473684210531
143,805.2797478329394,0.03947368421052633
144,808.0772261623324,0.03947368421052633
145,810.8747044917259,0.03947368421052633
146,813.6721828211189,0.03947368421052633
147,816.4696611505124,0.03947368421052633
148,816.4696611505124,0.046052631578947345
149,819.2671394799054,0.052631578947368474
150,819.2671394799054,0.046052631578947345
151,822.0646178092989,0.052631578947368474
152,824.8620961386919,0.052631578947368474
153,827.6595744680849,0.052631578947368474
154,830.4570527974784,0.052631578947368474
155,830.4570527974784,0.046052631578947345
156,833.2545311268714,0.046052631578947345
157,836.0520094562648,0.046052631578947345
158,836.0520094562648,0.03947368421052633
159,838.8494877856579,0.03947368421052633
160,841.6469661150513,0.03289473684210531
161,841.6469661150513,0.03947368421052633
162,844.4444444444443,0.03289473684210531
163,847.2419227738378,0.03289473684210531
164,850.0394011032308,0.03289473684210531
165,852.8368794326243,0.03289473684210531
166,855.6343577620173,0.03289473684210531
167,858.4318360914103,0.03289473684210531
168,861.2293144208038,0.03289473684210531
169,864.0267927501968,0.02631578947368418
170,864.0267927501968,0.03289473684210531
171,866.8242710795903,0.02631578947368418
172,869.6217494089833,0.02631578947368418
173,872.4192277383768,0.02631578947368418
174,875.2167060677698,0.02631578947368418
175,878.0141843971633,0.02631578947368418
176,880.8116627265563,0.02631578947368418
177,883.6091410559497,0.02631578947368418
178,886.4066193853428,0.02631578947368418
179,889.2040977147362,0.02631578947368418
180,892.0015760441293,0.03289473684210531
181,892.0015760441293,0.02631578947368418
182,894.7990543735223,0.03289473684210531
183,897.5965327029157,0.03289473684210531
184,900.3940110323088,0.03289473684210531
185,903.1914893617022,0.03289473684210531
186,905.9889676910952,0.03289473684210531
187,908.7864460204887,0.03289473684210531
188,911.5839243498817,0.03289473684210531
189,914.3814026792752,0.03289473684210531
190,917.1788810086682,0.03289473684210531
191,919.9763593380617,0.03947368421052633
192,919.9763593380617,0.03289473684210531
193,922.7738376674547,0.03947368421052633
194,925.5713159968477,0.03947368421052633
195,928.3687943262412,0.03947368421052633
196,931.1662726556342,0.03947368421052633
197,931.1662726556342,0.046052631578947345
198,933.9637509850277,0.046052631578947345
199,936.7612293144207,0.046052631578947345
200,939.5587076438142,0.046052631578947345
201,939.5587076438142,0.052631578947368474
202,942.3561859732072,0.052631578947368474
203,945.1536643026006,0.052631578947368474
204,947.9511426319937,0.052631578947368474
205,947.9511426319937,0.05921052631578949
206,950.7486209613871,0.05921052631578949
207,953.5460992907801,0.05921052631578949
208,956.3435776201732,0.05921052631578949
209,959.1410559495666,0.05921052631578949
210,961.9385342789597,0.05921052631578949
211,964.7360126083531,0.05921052631578949
212,967.5334909377461,0.05921052631578949
213,970.3309692671396,0.05921052631578949
214,973.1284475965326,0.05921052631578949
215,975.9259259259261,0.05921052631578949
216,978.7234042553191,0.05921052631578949
217,981.5208825847126,0.05921052631578949
218,981.5208825847126,0.052631578947368474
219,984.3183609141056,0.05921052631578949
220,984.3183609141056,0.052631578947368474
221,987.1158392434986,0.05921052631578949
222,989.9133175728921,0.05921052631578949
223,992.7107959022851,0.05921052631578949
224,995.5082742316786,0.05921052631578949
225,998.3057525610716,0.05921052631578949
226,1001.103230890465,0.05921052631578949
227,1003.9007092198581,0.05921052631578949
228,1006.6981875492515,0.05921052631578949
229,1009.4956658786446,0.05921052631578949
230,1009.4956658786446,0.06578947368421051
231,1012.293144208038,0.06578947368421051
232,1015.090622537431,0.06578947368421051
233,1017.8881008668241,0.07236842105263153
234,1017.8881008668241,0.06578947368421051
235,1020.6855791962175,0.07236842105263153
236,1023.4830575256105,0.07236842105263153
237,1023.4830575256105,0.07894736842105265
238,1026.280535855004,0.07894736842105265
239,1026.280535855004,0.08552631578947367
240,1029.078014184397,0.08552631578947367
241,1031.8754925137905,0.08552631578947367
242,1034.6729708431835,0.08552631578947367
243,1037.470449172577,0.08552631578947367
244,1040.26792750197,0.08552631578947367
245,1043.0654058313635,0.08552631578947367
246,1045.8628841607565,0.08552631578947367
247,1048.6603624901495,0.08552631578947367
248,1051.457840819543,0.08552631578947367
249,1054.255319148936,0.09210526315789469
250,1054.255319148936,0.08552631578947367
251,1057.0527974783295,0.09210526315789469
252,1059.8502758077225,0.09210526315789469
253,1062.647754137116,0.09210526315789469
254,1062.647754137116,0.08552631578947367
255,1065.445232466509,0.08552631578947367
256,1068.2427107959024,0.08552631578947367
257,1071.0401891252955,0.08552631578947367
258,1073.837667454689,0.08552631578947367
259,1073.837667454689,0.09210526315789469
260,1076.635145784082,0.09210526315789469
261,1079.432624113475,0.09210526315789469
262,1082.2301024428684,0.09868421052631582
263,1082.2301024428684,0.09210526315789469
264,1085.0275807722614,0.09868421052631582
265,1087.825059101655,0.09868421052631582
266,1090.622537431048,0.09868421052631582
267,1090.622537431048,0.10526315789473684
268,1093.4200157604414,0.10526315789473684
269,1096.2174940898344,0.11184210526315785
270,1096.2174940898344,0.10526315789473684
271,1099.014972419228,0.11842105263157898
272,1099.014972419228,0.11184210526315785
273,1101.812450748621,0.11842105263157898
274,1104.6099290780144,0.11842105263157898
275,1104.6099290780144,0.125
276,1107.4074074074074,0.125
277,1107.4074074074074,0.13157894736842102
278,1110.2048857368004,0.13815789473684215
279,1110.2048857368004,0.13157894736842102
280,1113.0023640661939,0.13815789473684215
281,1115.799842395587,0.13815789473684215
282,1118.5973207249804,0.13815789473684215
283,1118.5973207249804,0.13157894736842102
284,1121.3947990543734,0.13157894736842102
285,1121.3947990543734,0.125
286,1124.1922773837669,0.125
287,1126.9897557131599,0.125
288,1129.7872340425533,0.13157894736842102
289,1129.7872340425533,0.125
290,1129.7872340425533,0.13815789473684215
291,1132.5847123719464,0.13815789473684215
292,1132.5847123719464,0.14473684210526316
293,1132.5847123719464,0.15131578947368418
294,1135.3821907013398,0.16447368421052633
295,1135.3821907013398,0.15131578947368418
296,1135.3821907013398,0.1578947368421053
297,1135.3821907013398,0.17763157894736847
298,1135.3821907013398,0.17105263157894735
299,1138.1796690307328,0.1907894736842105
300,1138.1796690307328,0.1842105263157895
301,1138.1796690307328,0.17763157894736847
302,1140.9771473601263,0.2171052631578947
303,1140.9771473601263,0.23026315789473684
304,1140.9771473601263,0.23684210526315785
305,1140.9771473601263,0.21052631578947367
306,1140.9771473601263,0.19736842105263153
307,1140.9771473601263,0.20394736842105265
308,1140.9771473601263,0.1907894736842105
309,1140.9771473601263,0.22368421052631582
310,1143.7746256895193,0.26315789473684215
311,1143.7746256895193,0.25
312,1143.7746256895193,0.26973684210526316
313,1143.7746256895193,0.23684210526315785
314,1143.7746256895193,0.24342105263157898
315,1143.7746256895193,0.256578947368421
316,1146.5721040189123,0.29605263157894735
317,1146.5721040189123,0.2828947368421053
318,1146.5721040189123,0.3486842105263158
319,1146.5721040189123,0.3026315789473685
320,1146.5721040189123,0.3223684210526315
321,1146.5721040189123,0.3092105263157895
322,1146.5721040189123,0.3355263157894737
323,1146.5721040189123,0.32894736842105265
324,1146.5721040189123,0.2894736842105263
325,1146.5721040189123,0.3157894736842105
326,1146.5721040189123,0.3421052631578947
327,1146.5721040189123,0.26973684210526316
328,1146.5721040189123,0.2763157894736842
329,1149.3695823483058,0.3486842105263158
330,1149.3695823483058,0.381578947368421
331,1149.3695823483058,0.38815789473684215
332,1149.3695823483058,0.35526315789473684
333,1149.3695823483058,0.36184210526315785
334,1149.3695823483058,0.368421052631579
335,1149.3695823483058,0.375
336,1152.1670606776988,0.38815789473684215
337,1152.1670606776988,0.4078947368421053
338,1152.1670606776988,0.4144736842105263
339,1152.1670606776988,0.4276315789473685
340,1152.1670606776988,0.4013157894736842
341,1152.1670606776988,0.42105263157894735
342,1152.1670606776988,0.39473684210526316
343,1152.1670606776988,0.4342105263157895
344,1152.1670606776988,0.4407894736842105
345,1152.1670606776988,0.4605263157894737
346,1152.1670606776988,0.4671052631578947
347,1152.1670606776988,0.45394736842105265
348,1152.1670606776988,0.4473684210526315
349,1154.9645390070923,0.4736842105263158
350,1154.9645390070923,0.48026315789473684
351,1154.9645390070923,0.4671052631578947
352,1154.9645390070923,0.48684210526315785
353,1154.9645390070923,0.493421052631579
354,1157.7620173364853,0.513157894736842
355,1157.7620173364853,0.5
356,1157.7620173364853,0.506578947368421
357,1157.7620173364853,0.493421052631579
358,1160.5594956658788,0.5197368421052632
359,1160.5594956658788,0.5263157894736843
360,1160.5594956658788,0.513157894736842
361,1163.3569739952718,0.5263157894736843
362,1163.3569739952718,0.5197368421052632
363,1166.1544523246653,0.513157894736842
364,1166.1544523246653,0.5197368421052632
365,1166.1544523246653,0.493421052631579
366,1166.1544523246653,0.4736842105263158
367,1166.1544523246653,0.48026315789473684
368,1166.1544523246653,0.48684210526315785
369,1166.1544523246653,0.506578947368421
370,1166.1544523246653,0.5
371,1168.9519306540583,0.4605263157894737
372,1168.9519306540583,0.4736842105263158
373,1168.9519306540583,0.45394736842105265
374,1168.9519306540583,0.4671052631578947
375,1168.9519306540583,0.4473684210526315
376,1171.7494089834518,0.4342105263157895
377,1171.7494089834518,0.4276315789473685
378,1171.7494089834518,0.381578947368421
379,1171.7494089834518,0.38815789473684215
380,1171.7494089834518,0.4407894736842105
381,1171.7494089834518,0.4013157894736842
382,1171.7494089834518,0.4078947368421053
383,1171.7494089834518,0.4144736842105263
384,1171.7494089834518,0.42105263157894735
385,1171.7494089834518,0.39473684210526316
386,1174.5468873128448,0.35526315789473684
387,1174.5468873128448,0.381578947368421
388,1174.5468873128448,0.375
389,1174.5468873128448,0.368421052631579
390,1174.5468873128448,0.36184210526315785
391,1177.3443656422378,0.3092105263157895
392,1177.3443656422378,0.35526315789473684
393,1177.3443656422378,0.3486842105263158
394,1177.3443656422378,0.3157894736842105
395,1177.3443656422378,0.3421052631578947
396,1177.3443656422378,0.3026315789473685
397,1177.3443656422378,0.3223684210526315
398,1177.3443656422378,0.32894736842105265
399,1177.3443656422378,0.3355263157894737
400,1180.1418439716313,0.2894736842105263
401,1180.1418439716313,0.3026315789473685
402,1180.1418439716313,0.29605263157894735
403,1182.9393223010243,0.2894736842105263
404,1182.9393223010243,0.2763157894736842
405,1182.9393223010243,0.2828947368421053
406,1185.7368006304177,0.2763157894736842
407,1185.7368006304177,0.26973684210526316
408,1188.5342789598108,0.26315789473684215
409,1188.5342789598108,0.26973684210526316
410,1191.3317572892042,0.26315789473684215
411,1191.3317572892042,0.25
412,1191.3317572892042,0.256578947368421
413,1194.1292356185972,0.24342105263157898
414,1194.1292356185972,0.25
415,1196.9267139479907,0.23684210526315785
416,1196.9267139479907,0.24342105263157898
417,1196.9267139479907,0.23026315789473684
418,1199.7241922773837,0.23026315789473684
419,1199.7241922773837,0.22368421052631582
420,1202.5216706067772,0.22368421052631582
421,1205.3191489361702,0.22368421052631582
422,1208.1166272655632,0.22368421052631582
423,1210.9141055949567,0.22368421052631582
424,1213.7115839243497,0.22368421052631582
425,1216.5090622537432,0.22368421052631582
426,1216.5090622537432,0.23026315789473684
427,1219.3065405831362,0.23026315789473684
428,1222.1040189125297,0.23026315789473684
429,1222.1040189125297,0.23684210526315785
430,1224.9014972419227,0.23684210526315785
431,1227.6989755713162,0.23684210526315785
432,1227.6989755713162,0.24342105263157898
433,1230.4964539007092,0.25
434,1230.4964539007092,0.24342105263157898
435,1233.2939322301027,0.25
436,1236.0914105594957,0.256578947368421
437,1236.0914105594957,0.25
438,1238.8888888888887,0.256578947368421
439,1241.6863672182822,0.256578947368421
440,1244.4838455476752,0.256578947368421
441,1247.2813238770686,0.256578947368421
442,1250.0788022064617,0.256578947368421
443,1252.8762805358551,0.256578947368421
444,1255.6737588652481,0.256578947368421
445,1258.4712371946416,0.256578947368421
446,1258.4712371946416,0.25
447,1261.2687155240346,0.25
448,1261.2687155240346,0.24342105263157898
449,1264.066193853428,0.22368421052631582
450,1264.066193853428,0.24342105263157898
451,1264.066193853428,0.2171052631578947
452,1264.066193853428,0.23026315789473684
453,1264.066193853428,0.23684210526315785
454,1266.8636721828211,0.21052631578947367
455,1266.8636721828211,0.2171052631578947
456,1266.8636721828211,0.20394736842105265
457,1269.6611505122141,0.19736842105263153
458,1269.6611505122141,0.1907894736842105
459,1269.6611505122141,0.20394736842105265
460,1272.4586288416076,0.16447368421052633
461,1272.4586288416076,0.17105263157894735
462,1272.4586288416076,0.17763157894736847
463,1272.4586288416076,0.1842105263157895
464,1272.4586288416076,0.1907894736842105
465,1275.2561071710006,0.1578947368421053
466,1275.2561071710006,0.16447368421052633
467,1278.053585500394,0.13815789473684215
