,wavenumbers,absorbance
0,452.797478329393,0.019736842105263164
1,455.5949566587865,0.019736842105263164
2,458.3924349881795,0.019736842105263164
3,461.189913317573,0.02631578947368418
4,461.189913317573,0.019736842105263164
5,463.987391646966,0.02631578947368418
6,466.78486997635946,0.02631578947368418
7,469.5823483057525,0.02631578947368418
8,472.37982663514595,0.02631578947368418
9,475.17730496453896,0.02631578947368418
10,477.97478329393243,0.02631578947368418
11,480.77226162332545,0.02631578947368418
12,483.56973995271846,0.02631578947368418
13,486.36721828211193,0.02631578947368418
14,489.16469661150495,0.02631578947368418
15,491.9621749408984,0.03289473684210531
16,491.9621749408984,0.02631578947368418
17,494.75965327029144,0.03289473684210531
18,497.5571315996849,0.03289473684210531
19,500.3546099290779,0.03289473684210531
20,500.3546099290779,0.03947368421052633
21,503.1520882584714,0.03947368421052633
22,505.9495665878644,0.03947368421052633
23,508.7470449172579,0.03947368421052633
24,508.7470449172579,0.046052631578947345
25,511.5445232466509,0.046052631578947345
26,514.3420015760439,0.046052631578947345
27,514.3420015760439,0.052631578947368474
28,517.1394799054374,0.052631578947368474
29,519.9369582348304,0.052631578947368474
30,522.7344365642239,0.052631578947368474
31,525.5319148936169,0.052631578947368474
32,528.3293932230104,0.052631578947368474
33,531.1268715524034,0.052631578947368474
34,531.1268715524034,0.05921052631578949
35,533.9243498817968,0.05921052631578949
36,536.7218282111899,0.05921052631578949
37,539.5193065405833,0.05921052631578949
38,539.5193065405833,0.06578947368421051
39,542.3167848699763,0.06578947368421051
40,545.1142631993694,0.06578947368421051
41,547.9117415287628,0.07236842105263153
42,547.9117415287628,0.06578947368421051
43,550.7092198581558,0.07236842105263153
44,553.5066981875493,0.07236842105263153
45,556.3041765169423,0.06578947368421051
46,556.3041765169423,0.07236842105263153
47,559.1016548463358,0.06578947368421051
48,561.8991331757288,0.06578947368421051
49,564.6966115051223,0.06578947368421051
50,567.4940898345153,0.06578947368421051
51,570.2915681639088,0.06578947368421051
52,573.0890464933018,0.06578947368421051
53,575.8865248226948,0.06578947368421051
54,575.8865248226948,0.05921052631578949
55,578.6840031520883,0.05921052631578949
56,581.4814814814813,0.05921052631578949
57,584.2789598108748,0.05921052631578949
58,587.0764381402678,0.05921052631578949
59,589.8739164696613,0.05921052631578949
60,592.6713947990543,0.05921052631578949
61,595.4688731284477,0.05921052631578949
62,598.2663514578408,0.05921052631578949
63,601.0638297872342,0.05921052631578949
64,603.8613081166272,0.05921052631578949
65,606.6587864460207,0.05921052631578949
66,609.4562647754137,0.05921052631578949
67,612.2537431048067,0.05921052631578949
68,615.0512214342002,0.05921052631578949
69,617.8486997635932,0.05921052631578949
70,620.6461780929867,0.05921052631578949
71,623.4436564223797,0.05921052631578949
72,626.2411347517732,0.05921052631578949
73,629.0386130811662,0.05921052631578949
74,631.8360914105597,0.05921052631578949
75,634.6335697399527,0.052631578947368474
76,634.6335697399527,0.05921052631578949
77,637.4310480693462,0.052631578947368474
78,640.2285263987392,0.052631578947368474
79,643.0260047281322,0.052631578947368474
80,645.8234830575257,0.052631578947368474
81,648.6209613869187,0.052631578947368474
82,651.4184397163122,0.052631578947368474
83,654.2159180457052,0.052631578947368474
84,657.0133963750986,0.052631578947368474
85,659.8108747044917,0.052631578947368474
86,662.6083530338851,0.052631578947368474
87,662.6083530338851,0.046052631578947345
88,665.4058313632781,0.046052631578947345
89,668.2033096926716,0.046052631578947345
90,671.0007880220646,0.046052631578947345
91,673.7982663514576,0.03947368421052633
92,673.7982663514576,0.046052631578947345
93,676.5957446808511,0.03947368421052633
94,676.5957446808511,0.046052631578947345
95,679.3932230102441,0.046052631578947345
96,682.1907013396376,0.046052631578947345
97,682.1907013396376,0.03947368421052633
98,684.9881796690306,0.03947368421052633
99,687.7856579984241,0.03947368421052633
100,690.5831363278171,0.03947368421052633
101,693.3806146572106,0.03947368421052633
102,696.1780929866036,0.03947368421052633
103,698.9755713159971,0.03947368421052633
104,701.7730496453901,0.03947368421052633
105,704.5705279747831,0.03947368421052633
106,707.3680063041766,0.03947368421052633
107,707.3680063041766,0.046052631578947345
108,710.1654846335696,0.046052631578947345
109,712.962962962963,0.052631578947368474
110,712.962962962963,0.046052631578947345
111,712.962962962963,0.05921052631578949
112,715.7604412923561,0.05921052631578949
113,715.7604412923561,0.07236842105263153
114,715.7604412923561,0.06578947368421051
115,718.5579196217495,0.08552631578947367
116,718.5579196217495,0.09868421052631582
117,718.5579196217495,0.07894736842105265
118,718.5579196217495,0.09210526315789469
119,718.5579196217495,0.10526315789473684
120,718.5579196217495,0.07236842105263153
121,721.3553979511425,0.10526315789473684
122,721.3553979511425,0.11184210526315785
123,724.152876280536,0.11184210526315785
124,724.152876280536,0.10526315789473684
125,724.152876280536,0.09210526315789469
126,724.152876280536,0.09868421052631582
127,726.950354609929,0.08552631578947367
128,726.950354609929,0.09210526315789469
129,729.7478329393225,0.07894736842105265
130,729.7478329393225,0.07236842105263153
131,729.7478329393225,0.08552631578947367
132,732.5453112687155,0.07236842105263153
133,732.5453112687155,0.06578947368421051
134,732.5453112687155,0.052631578947368474
135,732.5453112687155,0.05921052631578949
136,735.3427895981085,0.046052631578947345
137,735.3427895981085,0.052631578947368474
138,738.140267927502,0.03947368421052633
139,738.140267927502,0.046052631578947345
140,740.937746256895,0.03947368421052633
141,743.7352245862885,0.03947368421052633
142,746.5327029156815,0.03947368421052633
143,749.330181245075,0.03947368421052633
144,749.330181245075,0.03289473684210531
145,752.127659574468,0.03289473684210531
146,754.9251379038615,0.03289473684210531
147,754.9251379038615,0.03947368421052633
148,757.7226162332545,0.03947368421052633
149,760.520094562648,0.03947368421052633
150,760.520094562648,0.03289473684210531
151,763.317572892041,0.02631578947368418
152,763.317572892041,0.03289473684210531
153,766.115051221434,0.02631578947368418
154,768.9125295508275,0.019736842105263164
155,768.9125295508275,0.02631578947368418
156,771.7100078802205,0.019736842105263164
157,774.507486209614,0.019736842105263164
158,777.304964539007,0.019736842105263164
159,780.1024428684004,0.019736842105263164
160,782.8999211977934,0.019736842105263164
161,785.6973995271869,0.019736842105263164
162,788.4948778565799,0.019736842105263164
163,791.2923561859734,0.019736842105263164
164,791.2923561859734,0.02631578947368418
165,794.0898345153664,0.02631578947368418
166,796.8873128447594,0.02631578947368418
167,799.6847911741529,0.02631578947368418
168,799.6847911741529,0.03289473684210531
169,802.4822695035459,0.03947368421052633
170,802.4822695035459,0.03289473684210531
171,805.2797478329394,0.03947368421052633
172,805.2797478329394,0.03289473684210531
173,808.0772261623324,0.03289473684210531
174,810.8747044917259,0.03289473684210531
175,810.8747044917259,0.02631578947368418
176,813.6721828211189,0.02631578947368418
177,816.4696611505124,0.02631578947368418
178,819.2671394799054,0.02631578947368418
179,822.0646178092989,0.02631578947368418
180,822.0646178092989,0.03289473684210531
181,824.8620961386919,0.03947368421052633
182,824.8620961386919,0.03289473684210531
183,827.6595744680849,0.03947368421052633
184,830.4570527974784,0.03947368421052633
185,830.4570527974784,0.046052631578947345
186,833.2545311268714,0.046052631578947345
187,836.0520094562648,0.046052631578947345
188,838.8494877856579,0.046052631578947345
189,841.6469661150513,0.046052631578947345
190,844.4444444444443,0.046052631578947345
191,844.4444444444443,0.052631578947368474
192,847.2419227738378,0.05921052631578949
193,847.2419227738378,0.052631578947368474
194,850.0394011032308,0.08552631578947367
195,850.0394011032308,0.05921052631578949
196,850.0394011032308,0.06578947368421051
197,850.0394011032308,0.07236842105263153
198,850.0394011032308,0.07894736842105265
199,852.8368794326243,0.09210526315789469
200,852.8368794326243,0.08552631578947367
201,855.6343577620173,0.09868421052631582
202,855.6343577620173,0.11184210526315785
203,855.6343577620173,0.11842105263157898
204,855.6343577620173,0.10526315789473684
205,855.6343577620173,0.09210526315789469
206,858.4318360914103,0.125
207,858.4318360914103,0.11842105263157898
208,861.2293144208038,0.13815789473684215
209,861.2293144208038,0.13157894736842102
210,861.2293144208038,0.125
211,864.0267927501968,0.13815789473684215
212,866.8242710795903,0.13157894736842102
213,866.8242710795903,0.13815789473684215
214,869.6217494089833,0.13157894736842102
215,872.4192277383768,0.13157894736842102
216,875.2167060677698,0.13815789473684215
217,875.2167060677698,0.13157894736842102
218,878.0141843971633,0.15131578947368418
219,878.0141843971633,0.14473684210526316
220,878.0141843971633,0.1578947368421053
221,878.0141843971633,0.13815789473684215
222,880.8116627265563,0.17105263157894735
223,880.8116627265563,0.1578947368421053
224,880.8116627265563,0.17763157894736847
225,880.8116627265563,0.1907894736842105
226,880.8116627265563,0.16447368421052633
227,880.8116627265563,0.1842105263157895
228,883.6091410559497,0.19736842105263153
229,883.6091410559497,0.20394736842105265
230,883.6091410559497,0.1907894736842105
231,886.4066193853428,0.21052631578947367
232,886.4066193853428,0.20394736842105265
233,889.2040977147362,0.21052631578947367
234,889.2040977147362,0.20394736842105265
235,892.0015760441293,0.20394736842105265
236,892.0015760441293,0.1842105263157895
237,892.0015760441293,0.19736842105263153
238,892.0015760441293,0.1907894736842105
239,894.7990543735223,0.17763157894736847
240,894.7990543735223,0.1842105263157895
241,897.5965327029157,0.1578947368421053
242,897.5965327029157,0.17105263157894735
243,897.5965327029157,0.15131578947368418
244,897.5965327029157,0.14473684210526316
245,897.5965327029157,0.16447368421052633
246,897.5965327029157,0.17763157894736847
247,900.3940110323088,0.13815789473684215
248,900.3940110323088,0.13157894736842102
249,900.3940110323088,0.14473684210526316
250,903.1914893617022,0.13157894736842102
251,903.1914893617022,0.11842105263157898
252,903.1914893617022,0.125
253,905.9889676910952,0.09868421052631582
254,905.9889676910952,0.11184210526315785
255,905.9889676910952,0.10526315789473684
256,905.9889676910952,0.09210526315789469
257,905.9889676910952,0.11842105263157898
258,908.7864460204887,0.09210526315789469
259,908.7864460204887,0.08552631578947367
260,911.5839243498817,0.08552631578947367
261,914.3814026792752,0.08552631578947367
262,914.3814026792752,0.07894736842105265
263,917.1788810086682,0.07894736842105265
264,919.9763593380617,0.07894736842105265
265,922.7738376674547,0.07894736842105265
266,922.7738376674547,0.08552631578947367
267,925.5713159968477,0.09210526315789469
268,925.5713159968477,0.08552631578947367
269,928.3687943262412,0.09868421052631582
270,928.3687943262412,0.09210526315789469
271,931.1662726556342,0.11184210526315785
272,931.1662726556342,0.10526315789473684
273,931.1662726556342,0.09868421052631582
274,933.9637509850277,0.11184210526315785
275,933.9637509850277,0.11842105263157898
276,936.7612293144207,0.11842105263157898
277,936.7612293144207,0.125
278,939.5587076438142,0.11842105263157898
279,939.5587076438142,0.125
280,942.3561859732072,0.11842105263157898
281,942.3561859732072,0.11184210526315785
282,942.3561859732072,0.09868421052631582
283,942.3561859732072,0.10526315789473684
284,945.1536643026006,0.08552631578947367
285,945.1536643026006,0.09210526315789469
286,945.1536643026006,0.09868421052631582
287,947.9511426319937,0.08552631578947367
288,947.9511426319937,0.07894736842105265
289,950.7486209613871,0.07894736842105265
290,950.7486209613871,0.07236842105263153
291,953.5460992907801,0.07236842105263153
292,956.3435776201732,0.07236842105263153
293,959.1410559495666,0.07236842105263153
294,961.9385342789597,0.07236842105263153
295,964.7360126083531,0.07236842105263153
296,967.5334909377461,0.07894736842105265
297,967.5334909377461,0.07236842105263153
298,970.3309692671396,0.07894736842105265
299,973.1284475965326,0.07894736842105265
300,973.1284475965326,0.08552631578947367
301,975.9259259259261,0.09210526315789469
302,975.9259259259261,0.08552631578947367
303,978.7234042553191,0.09868421052631582
304,978.7234042553191,0.09210526315789469
305,981.5208825847126,0.10526315789473684
306,981.5208825847126,0.09868421052631582
307,984.3183609141056,0.10526315789473684
308,984.3183609141056,0.11184210526315785
309,984.3183609141056,0.11842105263157898
310,987.1158392434986,0.125
311,987.1158392434986,0.11842105263157898
312,987.1158392434986,0.13157894736842102
313,989.9133175728921,0.13157894736842102
314,989.9133175728921,0.13815789473684215
315,992.7107959022851,0.13815789473684215
316,992.7107959022851,0.15131578947368418
317,992.7107959022851,0.14473684210526316
318,992.7107959022851,0.1578947368421053
319,995.5082742316786,0.1578947368421053
320,995.5082742316786,0.16447368421052633
321,998.3057525610716,0.17105263157894735
322,998.3057525610716,0.16447368421052633
323,1001.103230890465,0.17105263157894735
324,1003.9007092198581,0.1842105263157895
325,1003.9007092198581,0.17105263157894735
326,1003.9007092198581,0.17763157894736847
327,1006.6981875492515,0.1842105263157895
328,1006.6981875492515,0.1907894736842105
329,1009.4956658786446,0.20394736842105265
330,1009.4956658786446,0.1907894736842105
331,1009.4956658786446,0.19736842105263153
332,1012.293144208038,0.21052631578947367
333,1012.293144208038,0.20394736842105265
334,1015.090622537431,0.21052631578947367
335,1015.090622537431,0.2171052631578947
336,1015.090622537431,0.22368421052631582
337,1017.8881008668241,0.23026315789473684
338,1017.8881008668241,0.22368421052631582
339,1017.8881008668241,0.23684210526315785
340,1017.8881008668241,0.24342105263157898
341,1017.8881008668241,0.25
342,1020.6855791962175,0.25
343,1020.6855791962175,0.256578947368421
344,1020.6855791962175,0.26973684210526316
345,1020.6855791962175,0.26315789473684215
346,1023.4830575256105,0.2894736842105263
347,1023.4830575256105,0.2828947368421053
348,1023.4830575256105,0.2763157894736842
349,1023.4830575256105,0.29605263157894735
350,1023.4830575256105,0.3026315789473685
351,1023.4830575256105,0.26973684210526316
352,1026.280535855004,0.32894736842105265
353,1026.280535855004,0.3223684210526315
354,1026.280535855004,0.3092105263157895
355,1026.280535855004,0.3026315789473685
356,1026.280535855004,0.3157894736842105
357,1029.078014184397,0.3421052631578947
358,1029.078014184397,0.36184210526315785
359,1029.078014184397,0.3355263157894737
360,1029.078014184397,0.32894736842105265
361,1029.078014184397,0.368421052631579
362,1029.078014184397,0.375
363,1029.078014184397,0.381578947368421
364,1029.078014184397,0.35526315789473684
365,1029.078014184397,0.3486842105263158
366,1031.8754925137905,0.4078947368421053
367,1031.8754925137905,0.4013157894736842
368,1031.8754925137905,0.39473684210526316
369,1031.8754925137905,0.381578947368421
370,1031.8754925137905,0.38815789473684215
371,1034.6729708431835,0.4276315789473685
372,1034.6729708431835,0.4342105263157895
373,1034.6729708431835,0.4407894736842105
374,1034.6729708431835,0.4144736842105263
375,1034.6729708431835,0.4078947368421053
376,1034.6729708431835,0.42105263157894735
377,1037.470449172577,0.4407894736842105
378,1037.470449172577,0.4473684210526315
379,1037.470449172577,0.45394736842105265
380,1040.26792750197,0.45394736842105265
381,1040.26792750197,0.4605263157894737
382,1040.26792750197,0.4671052631578947
383,1040.26792750197,0.4736842105263158
384,1040.26792750197,0.48026315789473684
385,1043.0654058313635,0.5
386,1043.0654058313635,0.493421052631579
387,1043.0654058313635,0.48684210526315785
388,1043.0654058313635,0.48026315789473684
389,1045.8628841607565,0.506578947368421
390,1045.8628841607565,0.5197368421052632
391,1045.8628841607565,0.513157894736842
392,1045.8628841607565,0.5
393,1048.6603624901495,0.5263157894736843
394,1048.6603624901495,0.5328947368421053
395,1048.6603624901495,0.5526315789473684
396,1048.6603624901495,0.5460526315789473
397,1048.6603624901495,0.5394736842105263
398,1048.6603624901495,0.5197368421052632
399,1051.457840819543,0.5657894736842105
400,1051.457840819543,0.5592105263157895
401,1051.457840819543,0.5526315789473684
402,1054.255319148936,0.5723684210526316
403,1054.255319148936,0.5657894736842105
404,1054.255319148936,0.5789473684210527
405,1057.0527974783295,0.5789473684210527
406,1057.0527974783295,0.5855263157894737
407,1057.0527974783295,0.5921052631578947
408,1059.8502758077225,0.5921052631578947
409,1059.8502758077225,0.618421052631579
410,1059.8502758077225,0.6052631578947368
411,1059.8502758077225,0.611842105263158
412,1059.8502758077225,0.5986842105263157
413,1062.647754137116,0.618421052631579
414,1062.647754137116,0.625
415,1065.445232466509,0.625
416,1065.445232466509,0.631578947368421
417,1065.445232466509,0.638157894736842
418,1068.2427107959024,0.638157894736842
419,1068.2427107959024,0.631578947368421
420,1071.0401891252955,0.631578947368421
421,1073.837667454689,0.618421052631579
422,1073.837667454689,0.6052631578947368
423,1073.837667454689,0.611842105263158
424,1073.837667454689,0.5921052631578947
425,1073.837667454689,0.625
426,1073.837667454689,0.5986842105263157
427,1073.837667454689,0.631578947368421
428,1073.837667454689,0.5855263157894737
429,1076.635145784082,0.5723684210526316
430,1076.635145784082,0.5789473684210527
431,1076.635145784082,0.5592105263157895
432,1076.635145784082,0.5855263157894737
433,1076.635145784082,0.5657894736842105
434,1079.432624113475,0.5328947368421053
435,1079.432624113475,0.5526315789473684
436,1079.432624113475,0.5460526315789473
437,1079.432624113475,0.513157894736842
438,1079.432624113475,0.5197368421052632
439,1079.432624113475,0.506578947368421
440,1079.432624113475,0.5394736842105263
441,1079.432624113475,0.5592105263157895
442,1079.432624113475,0.5263157894736843
443,1082.2301024428684,0.5
444,1082.2301024428684,0.506578947368421
445,1082.2301024428684,0.48684210526315785
446,1082.2301024428684,0.493421052631579
447,1085.0275807722614,0.4605263157894737
448,1085.0275807722614,0.4671052631578947
449,1085.0275807722614,0.4473684210526315
450,1085.0275807722614,0.4736842105263158
451,1085.0275807722614,0.48684210526315785
452,1085.0275807722614,0.48026315789473684
453,1085.0275807722614,0.45394736842105265
454,1087.825059101655,0.4473684210526315
455,1087.825059101655,0.4342105263157895
456,1087.825059101655,0.4407894736842105
457,1090.622537431048,0.4276315789473685
458,1090.622537431048,0.4342105263157895
459,1093.4200157604414,0.4407894736842105
460,1093.4200157604414,0.4276315789473685
461,1093.4200157604414,0.4342105263157895
462,1096.2174940898344,0.48684210526315785
463,1096.2174940898344,0.4671052631578947
464,1096.2174940898344,0.4407894736842105
465,1096.2174940898344,0.4473684210526315
466,1096.2174940898344,0.45394736842105265
467,1096.2174940898344,0.4605263157894737
468,1096.2174940898344,0.4736842105263158
469,1096.2174940898344,0.48026315789473684
470,1099.014972419228,0.5
471,1099.014972419228,0.506578947368421
472,1099.014972419228,0.48684210526315785
