,wavenumbers,absorbance
0,452.797478329393,0.019736842105263164
1,455.5949566587865,0.019736842105263164
2,458.3924349881795,0.02631578947368418
3,458.3924349881795,0.019736842105263164
4,461.189913317573,0.02631578947368418
5,463.987391646966,0.02631578947368418
6,463.987391646966,0.019736842105263164
7,466.78486997635946,0.019736842105263164
8,469.5823483057525,0.019736842105263164
9,472.37982663514595,0.019736842105263164
10,475.17730496453896,0.019736842105263164
11,477.97478329393243,0.019736842105263164
12,480.77226162332545,0.019736842105263164
13,483.56973995271846,0.019736842105263164
14,486.36721828211193,0.019736842105263164
15,489.16469661150495,0.019736842105263164
16,491.9621749408984,0.019736842105263164
17,494.75965327029144,0.019736842105263164
18,497.5571315996849,0.019736842105263164
19,500.3546099290779,0.019736842105263164
20,503.1520882584714,0.019736842105263164
21,505.9495665878644,0.019736842105263164
22,508.7470449172579,0.019736842105263164
23,508.7470449172579,0.02631578947368418
24,511.5445232466509,0.019736842105263164
25,514.3420015760439,0.019736842105263164
26,517.1394799054374,0.019736842105263164
27,519.9369582348304,0.019736842105263164
28,522.7344365642239,0.019736842105263164
29,525.5319148936169,0.019736842105263164
30,528.3293932230104,0.019736842105263164
31,531.1268715524034,0.019736842105263164
32,533.9243498817968,0.019736842105263164
33,536.7218282111899,0.019736842105263164
34,539.5193065405833,0.019736842105263164
35,542.3167848699763,0.019736842105263164
36,545.1142631993694,0.019736842105263164
37,547.9117415287628,0.019736842105263164
38,550.7092198581558,0.019736842105263164
39,553.5066981875493,0.019736842105263164
40,556.3041765169423,0.019736842105263164
41,559.1016548463358,0.019736842105263164
42,561.8991331757288,0.019736842105263164
43,564.6966115051223,0.019736842105263164
44,564.6966115051223,0.02631578947368418
45,567.4940898345153,0.02631578947368418
46,570.2915681639088,0.02631578947368418
47,573.0890464933018,0.02631578947368418
48,575.8865248226948,0.03289473684210531
49,575.8865248226948,0.02631578947368418
50,578.6840031520883,0.03289473684210531
51,581.4814814814813,0.03289473684210531
52,581.4814814814813,0.03947368421052633
53,584.2789598108748,0.03947368421052633
54,587.0764381402678,0.03947368421052633
55,589.8739164696613,0.03947368421052633
56,592.6713947990543,0.03947368421052633
57,595.4688731284477,0.03947368421052633
58,598.2663514578408,0.03947368421052633
59,601.0638297872342,0.03947368421052633
60,603.8613081166272,0.03947368421052633
61,606.6587864460207,0.03947368421052633
62,609.4562647754137,0.03947368421052633
63,609.4562647754137,0.046052631578947345
64,612.2537431048067,0.046052631578947345
65,615.0512214342002,0.046052631578947345
66,617.8486997635932,0.046052631578947345
67,620.6461780929867,0.03947368421052633
68,620.6461780929867,0.046052631578947345
69,623.4436564223797,0.03947368421052633
70,626.2411347517732,0.03947368421052633
71,629.0386130811662,0.03947368421052633
72,631.8360914105597,0.03947368421052633
73,634.6335697399527,0.03947368421052633
74,637.4310480693462,0.03947368421052633
75,637.4310480693462,0.03289473684210531
76,640.2285263987392,0.03289473684210531
77,643.0260047281322,0.03289473684210531
78,645.8234830575257,0.03289473684210531
79,648.6209613869187,0.03289473684210531
80,651.4184397163122,0.03289473684210531
81,651.4184397163122,0.03947368421052633
82,654.2159180457052,0.03947368421052633
83,657.0133963750986,0.03947368421052633
84,659.8108747044917,0.03947368421052633
85,662.6083530338851,0.046052631578947345
86,662.6083530338851,0.03947368421052633
87,665.4058313632781,0.046052631578947345
88,668.2033096926716,0.046052631578947345
89,671.0007880220646,0.052631578947368474
90,671.0007880220646,0.046052631578947345
91,673.7982663514576,0.052631578947368474
92,676.5957446808511,0.05921052631578949
93,676.5957446808511,0.052631578947368474
94,679.3932230102441,0.05921052631578949
95,682.1907013396376,0.06578947368421051
96,682.1907013396376,0.05921052631578949
97,684.9881796690306,0.07236842105263153
98,684.9881796690306,0.06578947368421051
99,687.7856579984241,0.07236842105263153
100,687.7856579984241,0.07894736842105265
101,690.5831363278171,0.07894736842105265
102,693.3806146572106,0.07894736842105265
103,693.3806146572106,0.08552631578947367
104,696.1780929866036,0.08552631578947367
105,698.9755713159971,0.08552631578947367
106,701.7730496453901,0.09210526315789469
107,701.7730496453901,0.08552631578947367
108,704.5705279747831,0.09210526315789469
109,707.3680063041766,0.09868421052631582
110,707.3680063041766,0.09210526315789469
111,710.1654846335696,0.10526315789473684
112,710.1654846335696,0.09868421052631582
113,712.962962962963,0.10526315789473684
114,712.962962962963,0.11842105263157898
115,712.962962962963,0.11184210526315785
116,712.962962962963,0.125
117,715.7604412923561,0.13157894736842102
118,715.7604412923561,0.125
119,718.5579196217495,0.13157894736842102
120,718.5579196217495,0.13815789473684215
121,721.3553979511425,0.125
122,721.3553979511425,0.13815789473684215
123,721.3553979511425,0.13157894736842102
124,724.152876280536,0.11184210526315785
125,724.152876280536,0.125
126,724.152876280536,0.11842105263157898
127,726.950354609929,0.10526315789473684
128,726.950354609929,0.11184210526315785
129,729.7478329393225,0.10526315789473684
130,729.7478329393225,0.09868421052631582
131,732.5453112687155,0.09868421052631582
132,732.5453112687155,0.09210526315789469
133,732.5453112687155,0.08552631578947367
134,735.3427895981085,0.08552631578947367
135,735.3427895981085,0.07894736842105265
136,738.140267927502,0.07894736842105265
137,740.937746256895,0.07236842105263153
138,740.937746256895,0.07894736842105265
139,743.7352245862885,0.06578947368421051
140,743.7352245862885,0.07236842105263153
141,746.5327029156815,0.06578947368421051
142,749.330181245075,0.06578947368421051
143,752.127659574468,0.05921052631578949
144,752.127659574468,0.06578947368421051
145,754.9251379038615,0.05921052631578949
146,757.7226162332545,0.052631578947368474
147,757.7226162332545,0.05921052631578949
148,760.520094562648,0.052631578947368474
149,763.317572892041,0.046052631578947345
150,763.317572892041,0.052631578947368474
151,766.115051221434,0.046052631578947345
152,768.9125295508275,0.046052631578947345
153,768.9125295508275,0.03947368421052633
154,771.7100078802205,0.03947368421052633
155,774.507486209614,0.03947368421052633
156,774.507486209614,0.03289473684210531
157,777.304964539007,0.03289473684210531
158,780.1024428684004,0.03289473684210531
159,780.1024428684004,0.02631578947368418
160,785.6973995271869,0.02631578947368418
161,788.4948778565799,0.02631578947368418
162,788.4948778565799,0.019736842105263164
163,791.2923561859734,0.019736842105263164
164,794.0898345153664,0.019736842105263164
165,796.8873128447594,0.019736842105263164
166,799.6847911741529,0.013157894736842146
167,799.6847911741529,0.019736842105263164
168,802.4822695035459,0.019736842105263164
169,802.4822695035459,0.013157894736842146
170,805.2797478329394,0.019736842105263164
171,808.0772261623324,0.019736842105263164
172,810.8747044917259,0.019736842105263164
173,813.6721828211189,0.019736842105263164
174,816.4696611505124,0.019736842105263164
175,819.2671394799054,0.019736842105263164
176,822.0646178092989,0.019736842105263164
177,824.8620961386919,0.019736842105263164
178,827.6595744680849,0.019736842105263164
179,830.4570527974784,0.019736842105263164
180,833.2545311268714,0.019736842105263164
181,833.2545311268714,0.02631578947368418
182,836.0520094562648,0.02631578947368418
183,838.8494877856579,0.02631578947368418
184,841.6469661150513,0.02631578947368418
185,844.4444444444443,0.02631578947368418
186,847.2419227738378,0.02631578947368418
187,850.0394011032308,0.02631578947368418
188,852.8368794326243,0.02631578947368418
189,855.6343577620173,0.02631578947368418
190,858.4318360914103,0.02631578947368418
191,861.2293144208038,0.02631578947368418
192,864.0267927501968,0.02631578947368418
193,866.8242710795903,0.02631578947368418
194,869.6217494089833,0.02631578947368418
195,872.4192277383768,0.02631578947368418
196,875.2167060677698,0.02631578947368418
197,878.0141843971633,0.02631578947368418
198,880.8116627265563,0.02631578947368418
199,883.6091410559497,0.02631578947368418
200,883.6091410559497,0.03289473684210531
201,886.4066193853428,0.02631578947368418
202,886.4066193853428,0.03289473684210531
203,889.2040977147362,0.02631578947368418
204,892.0015760441293,0.02631578947368418
205,894.7990543735223,0.02631578947368418
206,897.5965327029157,0.02631578947368418
207,900.3940110323088,0.02631578947368418
208,903.1914893617022,0.02631578947368418
209,905.9889676910952,0.02631578947368418
210,908.7864460204887,0.02631578947368418
211,911.5839243498817,0.02631578947368418
212,914.3814026792752,0.02631578947368418
213,917.1788810086682,0.02631578947368418
214,919.9763593380617,0.03289473684210531
215,919.9763593380617,0.02631578947368418
216,922.7738376674547,0.03289473684210531
217,925.5713159968477,0.03289473684210531
218,928.3687943262412,0.03289473684210531
219,928.3687943262412,0.03947368421052633
220,931.1662726556342,0.03947368421052633
221,933.9637509850277,0.03947368421052633
222,933.9637509850277,0.046052631578947345
223,936.7612293144207,0.046052631578947345
224,936.7612293144207,0.052631578947368474
225,939.5587076438142,0.05921052631578949
226,939.5587076438142,0.052631578947368474
227,942.3561859732072,0.05921052631578949
228,945.1536643026006,0.05921052631578949
229,947.9511426319937,0.05921052631578949
230,947.9511426319937,0.052631578947368474
231,950.7486209613871,0.052631578947368474
232,953.5460992907801,0.052631578947368474
233,953.5460992907801,0.046052631578947345
234,956.3435776201732,0.046052631578947345
235,959.1410559495666,0.046052631578947345
236,961.9385342789597,0.046052631578947345
237,964.7360126083531,0.046052631578947345
238,967.5334909377461,0.03947368421052633
239,967.5334909377461,0.046052631578947345
240,970.3309692671396,0.03947368421052633
241,973.1284475965326,0.03947368421052633
242,973.1284475965326,0.03289473684210531
243,975.9259259259261,0.03289473684210531
244,978.7234042553191,0.03289473684210531
245,981.5208825847126,0.03289473684210531
246,984.3183609141056,0.03289473684210531
247,987.1158392434986,0.03289473684210531
248,989.9133175728921,0.03289473684210531
249,992.7107959022851,0.03289473684210531
250,995.5082742316786,0.03289473684210531
251,998.3057525610716,0.03289473684210531
252,1001.103230890465,0.03289473684210531
253,1003.9007092198581,0.03289473684210531
254,1006.6981875492515,0.03289473684210531
255,1009.4956658786446,0.03947368421052633
256,1009.4956658786446,0.03289473684210531
257,1012.293144208038,0.03947368421052633
258,1015.090622537431,0.03947368421052633
259,1017.8881008668241,0.03947368421052633
260,1020.6855791962175,0.03947368421052633
261,1023.4830575256105,0.03947368421052633
262,1026.280535855004,0.03947368421052633
263,1029.078014184397,0.03947368421052633
264,1029.078014184397,0.046052631578947345
265,1031.8754925137905,0.046052631578947345
266,1034.6729708431835,0.046052631578947345
267,1037.470449172577,0.046052631578947345
268,1040.26792750197,0.052631578947368474
269,1040.26792750197,0.046052631578947345
270,1043.0654058313635,0.052631578947368474
271,1045.8628841607565,0.052631578947368474
272,1048.6603624901495,0.052631578947368474
273,1051.457840819543,0.052631578947368474
274,1054.255319148936,0.05921052631578949
275,1054.255319148936,0.052631578947368474
276,1057.0527974783295,0.05921052631578949
277,1059.8502758077225,0.05921052631578949
278,1062.647754137116,0.05921052631578949
279,1065.445232466509,0.05921052631578949
280,1068.2427107959024,0.05921052631578949
281,1071.0401891252955,0.05921052631578949
282,1073.837667454689,0.05921052631578949
283,1076.635145784082,0.05921052631578949
284,1079.432624113475,0.05921052631578949
285,1082.2301024428684,0.05921052631578949
286,1085.0275807722614,0.05921052631578949
287,1087.825059101655,0.05921052631578949
288,1090.622537431048,0.06578947368421051
289,1090.622537431048,0.05921052631578949
290,1093.4200157604414,0.06578947368421051
291,1096.2174940898344,0.06578947368421051
292,1099.014972419228,0.06578947368421051
293,1101.812450748621,0.06578947368421051
294,1104.6099290780144,0.07236842105263153
295,1104.6099290780144,0.06578947368421051
296,1107.4074074074074,0.07236842105263153
297,1110.2048857368004,0.07894736842105265
298,1110.2048857368004,0.07236842105263153
299,1113.0023640661939,0.07894736842105265
300,1115.799842395587,0.07894736842105265
301,1115.799842395587,0.08552631578947367
302,1118.5973207249804,0.08552631578947367
303,1121.3947990543734,0.08552631578947367
304,1121.3947990543734,0.07894736842105265
305,1124.1922773837669,0.07894736842105265
306,1126.9897557131599,0.07894736842105265
307,1129.7872340425533,0.07894736842105265
308,1132.5847123719464,0.07236842105263153
309,1132.5847123719464,0.07894736842105265
310,1135.3821907013398,0.07236842105263153
311,1138.1796690307328,0.07236842105263153
312,1140.9771473601263,0.07236842105263153
313,1140.9771473601263,0.06578947368421051
314,1143.7746256895193,0.06578947368421051
315,1146.5721040189123,0.06578947368421051
316,1149.3695823483058,0.07236842105263153
317,1149.3695823483058,0.06578947368421051
318,1152.1670606776988,0.07236842105263153
319,1154.9645390070923,0.07236842105263153
320,1157.7620173364853,0.07236842105263153
321,1160.5594956658788,0.07894736842105265
322,1160.5594956658788,0.07236842105263153
323,1163.3569739952718,0.07894736842105265
324,1166.1544523246653,0.07894736842105265
325,1168.9519306540583,0.07894736842105265
326,1171.7494089834518,0.08552631578947367
327,1171.7494089834518,0.07894736842105265
328,1174.5468873128448,0.08552631578947367
329,1177.3443656422378,0.08552631578947367
330,1177.3443656422378,0.09210526315789469
331,1180.1418439716313,0.08552631578947367
332,1182.9393223010243,0.08552631578947367
333,1185.7368006304177,0.08552631578947367
334,1185.7368006304177,0.09210526315789469
335,1188.5342789598108,0.09210526315789469
336,1191.3317572892042,0.09210526315789469
337,1194.1292356185972,0.09210526315789469
338,1196.9267139479907,0.09210526315789469
339,1196.9267139479907,0.09868421052631582
340,1199.7241922773837,0.09868421052631582
341,1202.5216706067772,0.09868421052631582
342,1205.3191489361702,0.09868421052631582
343,1205.3191489361702,0.10526315789473684
344,1208.1166272655632,0.10526315789473684
345,1208.1166272655632,0.11184210526315785
346,1210.9141055949567,0.11184210526315785
347,1213.7115839243497,0.11842105263157898
348,1213.7115839243497,0.11184210526315785
349,1216.5090622537432,0.11842105263157898
350,1216.5090622537432,0.13157894736842102
351,1216.5090622537432,0.125
352,1219.3065405831362,0.13815789473684215
353,1219.3065405831362,0.14473684210526316
354,1219.3065405831362,0.13157894736842102
355,1222.1040189125297,0.16447368421052633
356,1222.1040189125297,0.14473684210526316
357,1222.1040189125297,0.15131578947368418
358,1222.1040189125297,0.1578947368421053
359,1224.9014972419227,0.17105263157894735
360,1224.9014972419227,0.16447368421052633
361,1227.6989755713162,0.17105263157894735
362,1227.6989755713162,0.19736842105263153
363,1227.6989755713162,0.17763157894736847
364,1227.6989755713162,0.1842105263157895
365,1227.6989755713162,0.1907894736842105
366,1230.4964539007092,0.21052631578947367
367,1230.4964539007092,0.20394736842105265
368,1230.4964539007092,0.19736842105263153
369,1233.2939322301027,0.23684210526315785
370,1233.2939322301027,0.23026315789473684
371,1233.2939322301027,0.22368421052631582
372,1233.2939322301027,0.2171052631578947
373,1233.2939322301027,0.21052631578947367
374,1236.0914105594957,0.24342105263157898
375,1236.0914105594957,0.23684210526315785
376,1238.8888888888887,0.24342105263157898
377,1238.8888888888887,0.25
378,1241.6863672182822,0.24342105263157898
379,1241.6863672182822,0.25
380,1244.4838455476752,0.23684210526315785
381,1244.4838455476752,0.23026315789473684
382,1244.4838455476752,0.24342105263157898
383,1247.2813238770686,0.23026315789473684
384,1247.2813238770686,0.22368421052631582
385,1247.2813238770686,0.2171052631578947
386,1247.2813238770686,0.21052631578947367
387,1247.2813238770686,0.20394736842105265
388,1250.0788022064617,0.20394736842105265
389,1250.0788022064617,0.19736842105263153
390,1250.0788022064617,0.1907894736842105
391,1252.8762805358551,0.17763157894736847
392,1252.8762805358551,0.1842105263157895
393,1252.8762805358551,0.1907894736842105
394,1255.6737588652481,0.17763157894736847
395,1258.4712371946416,0.17105263157894735
396,1258.4712371946416,0.17763157894736847
397,1261.2687155240346,0.17105263157894735
398,1264.066193853428,0.17105263157894735
399,1264.066193853428,0.16447368421052633
400,1266.8636721828211,0.16447368421052633
401,1269.6611505122141,0.1578947368421053
402,1269.6611505122141,0.16447368421052633
403,1272.4586288416076,0.1578947368421053
404,1272.4586288416076,0.15131578947368418
405,1275.2561071710006,0.15131578947368418
406,1278.053585500394,0.14473684210526316
407,1278.053585500394,0.15131578947368418
408,1280.851063829787,0.14473684210526316
409,1280.851063829787,0.13815789473684215
410,1283.6485421591806,0.13815789473684215
411,1283.6485421591806,0.13157894736842102
412,1286.4460204885736,0.125
413,1286.4460204885736,0.13157894736842102
414,1289.243498817967,0.125
415,1292.04097714736,0.125
416,1294.8384554767536,0.125
417,1294.8384554767536,0.11842105263157898
418,1297.6359338061466,0.11842105263157898
419,1300.4334121355396,0.11842105263157898
420,1303.230890464933,0.125
421,1303.230890464933,0.11842105263157898
422,1306.028368794326,0.11842105263157898
423,1308.8258471237195,0.10526315789473684
424,1308.8258471237195,0.11842105263157898
425,1308.8258471237195,0.11184210526315785
426,1311.6233254531126,0.10526315789473684
427,1314.420803782506,0.09868421052631582
428,1314.420803782506,0.10526315789473684
429,1317.218282111899,0.09868421052631582
430,1320.0157604412925,0.09868421052631582
431,1322.8132387706855,0.09868421052631582
432,1322.8132387706855,0.10526315789473684
433,1325.610717100079,0.10526315789473684
434,1328.408195429472,0.11842105263157898
435,1328.408195429472,0.11184210526315785
436,1328.408195429472,0.10526315789473684
437,1331.205673758865,0.11842105263157898
438,1334.0031520882585,0.125
439,1334.0031520882585,0.11842105263157898
440,1336.8006304176515,0.125
441,1339.598108747045,0.125
442,1342.395587076438,0.125
443,1345.1930654058315,0.13157894736842102
444,1345.1930654058315,0.125
445,1347.9905437352245,0.13815789473684215
446,1347.9905437352245,0.13157894736842102
447,1350.788022064618,0.14473684210526316
448,1350.788022064618,0.13815789473684215
449,1353.585500394011,0.14473684210526316
450,1356.3829787234044,0.15131578947368418
451,1356.3829787234044,0.14473684210526316
452,1359.1804570527975,0.15131578947368418
453,1359.1804570527975,0.1578947368421053
454,1361.9779353821905,0.1578947368421053
455,1361.9779353821905,0.16447368421052633
456,1364.775413711584,0.17105263157894735
457,1364.775413711584,0.16447368421052633
458,1367.572892040977,0.17105263157894735
459,1367.572892040977,0.17763157894736847
460,1370.3703703703704,0.19736842105263153
461,1370.3703703703704,0.1907894736842105
462,1370.3703703703704,0.17763157894736847
463,1370.3703703703704,0.20394736842105265
464,1370.3703703703704,0.1842105263157895
465,1373.1678486997635,0.20394736842105265
466,1373.1678486997635,0.21052631578947367
