,wavenumbers,absorbance
0,452.797478329393,0.046052631578947345
1,452.797478329393,0.03947368421052633
2,455.5949566587865,0.03947368421052633
3,455.5949566587865,0.046052631578947345
4,458.3924349881795,0.03947368421052633
5,461.189913317573,0.03947368421052633
6,463.987391646966,0.03947368421052633
7,466.78486997635946,0.03947368421052633
8,469.5823483057525,0.03947368421052633
9,472.37982663514595,0.03947368421052633
10,475.17730496453896,0.03947368421052633
11,477.97478329393243,0.03947368421052633
12,477.97478329393243,0.046052631578947345
13,480.77226162332545,0.03947368421052633
14,480.77226162332545,0.046052631578947345
15,483.56973995271846,0.046052631578947345
16,483.56973995271846,0.03947368421052633
17,486.36721828211193,0.046052631578947345
18,489.16469661150495,0.046052631578947345
19,491.9621749408984,0.046052631578947345
20,494.75965327029144,0.046052631578947345
21,497.5571315996849,0.046052631578947345
22,500.3546099290779,0.046052631578947345
23,503.1520882584714,0.046052631578947345
24,505.9495665878644,0.046052631578947345
25,505.9495665878644,0.052631578947368474
26,508.7470449172579,0.052631578947368474
27,511.5445232466509,0.052631578947368474
28,514.3420015760439,0.052631578947368474
29,517.1394799054374,0.052631578947368474
30,519.9369582348304,0.052631578947368474
31,522.7344365642239,0.052631578947368474
32,522.7344365642239,0.05921052631578949
33,525.5319148936169,0.05921052631578949
34,528.3293932230104,0.05921052631578949
35,531.1268715524034,0.05921052631578949
36,533.9243498817968,0.05921052631578949
37,536.7218282111899,0.05921052631578949
38,539.5193065405833,0.05921052631578949
39,542.3167848699763,0.05921052631578949
40,545.1142631993694,0.052631578947368474
41,545.1142631993694,0.05921052631578949
42,547.9117415287628,0.052631578947368474
43,550.7092198581558,0.052631578947368474
44,553.5066981875493,0.052631578947368474
45,556.3041765169423,0.052631578947368474
46,556.3041765169423,0.046052631578947345
47,559.1016548463358,0.046052631578947345
48,561.8991331757288,0.046052631578947345
49,564.6966115051223,0.046052631578947345
50,567.4940898345153,0.046052631578947345
51,567.4940898345153,0.03947368421052633
52,570.2915681639088,0.03947368421052633
53,573.0890464933018,0.03947368421052633
54,575.8865248226948,0.03947368421052633
55,578.6840031520883,0.03947368421052633
56,581.4814814814813,0.03947368421052633
57,584.2789598108748,0.03947368421052633
58,587.0764381402678,0.03947368421052633
59,589.8739164696613,0.03947368421052633
60,589.8739164696613,0.03289473684210531
61,592.6713947990543,0.03289473684210531
62,595.4688731284477,0.03289473684210531
63,598.2663514578408,0.03289473684210531
64,601.0638297872342,0.03289473684210531
65,603.8613081166272,0.03289473684210531
66,606.6587864460207,0.03289473684210531
67,609.4562647754137,0.03289473684210531
68,612.2537431048067,0.03947368421052633
69,612.2537431048067,0.03289473684210531
70,615.0512214342002,0.03947368421052633
71,617.8486997635932,0.03947368421052633
72,620.6461780929867,0.03947368421052633
73,623.4436564223797,0.03947368421052633
74,626.2411347517732,0.03289473684210531
75,626.2411347517732,0.03947368421052633
76,629.0386130811662,0.03289473684210531
77,631.8360914105597,0.03289473684210531
78,634.6335697399527,0.03289473684210531
79,637.4310480693462,0.02631578947368418
80,637.4310480693462,0.03289473684210531
81,640.2285263987392,0.02631578947368418
82,643.0260047281322,0.02631578947368418
83,645.8234830575257,0.02631578947368418
84,648.6209613869187,0.02631578947368418
85,651.4184397163122,0.02631578947368418
86,654.2159180457052,0.02631578947368418
87,657.0133963750986,0.02631578947368418
88,659.8108747044917,0.02631578947368418
89,659.8108747044917,0.03289473684210531
90,662.6083530338851,0.03289473684210531
91,665.4058313632781,0.03289473684210531
92,668.2033096926716,0.03289473684210531
93,668.2033096926716,0.02631578947368418
94,671.0007880220646,0.02631578947368418
95,673.7982663514576,0.02631578947368418
96,676.5957446808511,0.02631578947368418
97,679.3932230102441,0.02631578947368418
98,682.1907013396376,0.02631578947368418
99,684.9881796690306,0.02631578947368418
100,687.7856579984241,0.02631578947368418
101,690.5831363278171,0.02631578947368418
102,693.3806146572106,0.02631578947368418
103,696.1780929866036,0.02631578947368418
104,698.9755713159971,0.02631578947368418
105,701.7730496453901,0.02631578947368418
106,704.5705279747831,0.02631578947368418
107,707.3680063041766,0.02631578947368418
108,707.3680063041766,0.03289473684210531
109,710.1654846335696,0.03289473684210531
110,712.962962962963,0.03947368421052633
111,712.962962962963,0.03289473684210531
112,715.7604412923561,0.03947368421052633
113,718.5579196217495,0.03947368421052633
114,718.5579196217495,0.046052631578947345
115,721.3553979511425,0.046052631578947345
116,724.152876280536,0.052631578947368474
117,724.152876280536,0.046052631578947345
118,726.950354609929,0.052631578947368474
119,729.7478329393225,0.05921052631578949
120,729.7478329393225,0.052631578947368474
121,732.5453112687155,0.05921052631578949
122,732.5453112687155,0.06578947368421051
123,735.3427895981085,0.07236842105263153
124,735.3427895981085,0.06578947368421051
125,738.140267927502,0.07236842105263153
126,738.140267927502,0.07894736842105265
127,740.937746256895,0.07894736842105265
128,743.7352245862885,0.07894736842105265
129,743.7352245862885,0.08552631578947367
130,746.5327029156815,0.08552631578947367
131,746.5327029156815,0.09210526315789469
132,749.330181245075,0.09210526315789469
133,752.127659574468,0.09210526315789469
134,754.9251379038615,0.09210526315789469
135,757.7226162332545,0.09210526315789469
136,760.520094562648,0.09210526315789469
137,763.317572892041,0.09210526315789469
138,766.115051221434,0.09210526315789469
139,768.9125295508275,0.09210526315789469
140,771.7100078802205,0.09210526315789469
141,774.507486209614,0.09210526315789469
142,777.304964539007,0.09868421052631582
143,777.304964539007,0.09210526315789469
144,780.1024428684004,0.09868421052631582
145,782.8999211977934,0.09868421052631582
146,785.6973995271869,0.09868421052631582
147,788.4948778565799,0.09868421052631582
148,791.2923561859734,0.09868421052631582
149,794.0898345153664,0.09868421052631582
150,796.8873128447594,0.09868421052631582
151,799.6847911741529,0.09868421052631582
152,802.4822695035459,0.09868421052631582
153,805.2797478329394,0.09868421052631582
154,808.0772261623324,0.09868421052631582
155,810.8747044917259,0.09210526315789469
156,810.8747044917259,0.09868421052631582
157,813.6721828211189,0.09210526315789469
158,816.4696611505124,0.09210526315789469
159,816.4696611505124,0.09868421052631582
160,819.2671394799054,0.09868421052631582
161,822.0646178092989,0.10526315789473684
162,822.0646178092989,0.09868421052631582
163,824.8620961386919,0.10526315789473684
164,824.8620961386919,0.11842105263157898
165,824.8620961386919,0.11184210526315785
166,827.6595744680849,0.125
167,827.6595744680849,0.11842105263157898
168,830.4570527974784,0.13815789473684215
169,830.4570527974784,0.125
170,830.4570527974784,0.13157894736842102
171,833.2545311268714,0.13815789473684215
172,836.0520094562648,0.13815789473684215
173,836.0520094562648,0.14473684210526316
174,838.8494877856579,0.14473684210526316
175,838.8494877856579,0.15131578947368418
176,841.6469661150513,0.15131578947368418
177,841.6469661150513,0.1578947368421053
178,844.4444444444443,0.1578947368421053
179,847.2419227738378,0.1578947368421053
180,847.2419227738378,0.16447368421052633
181,850.0394011032308,0.1578947368421053
182,850.0394011032308,0.16447368421052633
183,852.8368794326243,0.1578947368421053
184,852.8368794326243,0.15131578947368418
185,855.6343577620173,0.13815789473684215
186,855.6343577620173,0.15131578947368418
187,855.6343577620173,0.14473684210526316
188,858.4318360914103,0.13157894736842102
189,858.4318360914103,0.13815789473684215
190,864.0267927501968,0.13157894736842102
191,866.8242710795903,0.13157894736842102
192,869.6217494089833,0.13157894736842102
193,869.6217494089833,0.13815789473684215
194,872.4192277383768,0.14473684210526316
195,872.4192277383768,0.13815789473684215
196,875.2167060677698,0.15131578947368418
197,875.2167060677698,0.14473684210526316
198,878.0141843971633,0.15131578947368418
199,880.8116627265563,0.15131578947368418
200,883.6091410559497,0.15131578947368418
201,883.6091410559497,0.14473684210526316
202,886.4066193853428,0.14473684210526316
203,886.4066193853428,0.13815789473684215
204,889.2040977147362,0.13157894736842102
205,889.2040977147362,0.13815789473684215
206,892.0015760441293,0.13157894736842102
207,894.7990543735223,0.13157894736842102
208,897.5965327029157,0.13157894736842102
209,900.3940110323088,0.13157894736842102
210,903.1914893617022,0.13815789473684215
211,903.1914893617022,0.13157894736842102
212,905.9889676910952,0.14473684210526316
213,905.9889676910952,0.13815789473684215
214,908.7864460204887,0.15131578947368418
215,908.7864460204887,0.14473684210526316
216,911.5839243498817,0.15131578947368418
217,914.3814026792752,0.15131578947368418
218,917.1788810086682,0.1578947368421053
219,917.1788810086682,0.15131578947368418
220,919.9763593380617,0.1578947368421053
221,922.7738376674547,0.1578947368421053
222,925.5713159968477,0.1578947368421053
223,928.3687943262412,0.15131578947368418
224,928.3687943262412,0.1578947368421053
225,931.1662726556342,0.15131578947368418
226,933.9637509850277,0.15131578947368418
227,936.7612293144207,0.15131578947368418
228,936.7612293144207,0.14473684210526316
229,939.5587076438142,0.14473684210526316
230,942.3561859732072,0.14473684210526316
231,945.1536643026006,0.14473684210526316
232,947.9511426319937,0.14473684210526316
233,950.7486209613871,0.14473684210526316
234,953.5460992907801,0.14473684210526316
235,956.3435776201732,0.14473684210526316
236,959.1410559495666,0.14473684210526316
237,961.9385342789597,0.14473684210526316
238,961.9385342789597,0.13815789473684215
239,964.7360126083531,0.13815789473684215
240,967.5334909377461,0.13815789473684215
241,967.5334909377461,0.125
242,967.5334909377461,0.13157894736842102
243,970.3309692671396,0.11842105263157898
244,970.3309692671396,0.125
245,973.1284475965326,0.11184210526315785
246,973.1284475965326,0.11842105263157898
247,975.9259259259261,0.11184210526315785
248,978.7234042553191,0.11184210526315785
249,978.7234042553191,0.10526315789473684
250,981.5208825847126,0.09868421052631582
251,981.5208825847126,0.10526315789473684
252,984.3183609141056,0.09868421052631582
253,987.1158392434986,0.09868421052631582
254,989.9133175728921,0.09210526315789469
255,989.9133175728921,0.09868421052631582
256,992.7107959022851,0.09210526315789469
257,995.5082742316786,0.09210526315789469
258,998.3057525610716,0.09868421052631582
259,998.3057525610716,0.09210526315789469
260,1001.103230890465,0.10526315789473684
261,1001.103230890465,0.09868421052631582
262,1003.9007092198581,0.11184210526315785
263,1003.9007092198581,0.10526315789473684
264,1003.9007092198581,0.125
265,1003.9007092198581,0.11842105263157898
266,1006.6981875492515,0.13157894736842102
267,1006.6981875492515,0.125
268,1009.4956658786446,0.15131578947368418
269,1009.4956658786446,0.13815789473684215
270,1009.4956658786446,0.14473684210526316
271,1009.4956658786446,0.13157894736842102
272,1012.293144208038,0.15131578947368418
273,1015.090622537431,0.15131578947368418
274,1015.090622537431,0.1578947368421053
275,1017.8881008668241,0.16447368421052633
276,1017.8881008668241,0.1578947368421053
277,1020.6855791962175,0.16447368421052633
278,1023.4830575256105,0.16447368421052633
279,1023.4830575256105,0.17763157894736847
280,1023.4830575256105,0.17105263157894735
281,1026.280535855004,0.17763157894736847
282,1026.280535855004,0.1842105263157895
283,1029.078014184397,0.19736842105263153
284,1029.078014184397,0.1842105263157895
285,1029.078014184397,0.1907894736842105
286,1031.8754925137905,0.20394736842105265
287,1031.8754925137905,0.19736842105263153
288,1034.6729708431835,0.20394736842105265
289,1037.470449172577,0.20394736842105265
290,1037.470449172577,0.21052631578947367
291,1040.26792750197,0.2171052631578947
292,1040.26792750197,0.21052631578947367
293,1043.0654058313635,0.22368421052631582
294,1043.0654058313635,0.2171052631578947
295,1045.8628841607565,0.22368421052631582
296,1045.8628841607565,0.2171052631578947
297,1048.6603624901495,0.21052631578947367
298,1048.6603624901495,0.2171052631578947
299,1048.6603624901495,0.20394736842105265
300,1051.457840819543,0.20394736842105265
301,1051.457840819543,0.19736842105263153
302,1054.255319148936,0.1842105263157895
303,1054.255319148936,0.19736842105263153
304,1054.255319148936,0.1907894736842105
305,1057.0527974783295,0.1907894736842105
306,1057.0527974783295,0.1842105263157895
307,1059.8502758077225,0.19736842105263153
308,1059.8502758077225,0.1907894736842105
309,1059.8502758077225,0.20394736842105265
310,1062.647754137116,0.21052631578947367
311,1062.647754137116,0.20394736842105265
312,1065.445232466509,0.21052631578947367
313,1065.445232466509,0.20394736842105265
314,1068.2427107959024,0.1907894736842105
315,1068.2427107959024,0.19736842105263153
316,1068.2427107959024,0.20394736842105265
317,1071.0401891252955,0.1842105263157895
318,1071.0401891252955,0.1907894736842105
319,1073.837667454689,0.17763157894736847
320,1073.837667454689,0.17105263157894735
321,1073.837667454689,0.1842105263157895
322,1076.635145784082,0.17105263157894735
323,1076.635145784082,0.16447368421052633
324,1079.432624113475,0.16447368421052633
325,1082.2301024428684,0.16447368421052633
326,1085.0275807722614,0.17105263157894735
327,1085.0275807722614,0.17763157894736847
328,1085.0275807722614,0.16447368421052633
329,1087.825059101655,0.1907894736842105
330,1087.825059101655,0.17763157894736847
331,1087.825059101655,0.1842105263157895
332,1090.622537431048,0.20394736842105265
333,1090.622537431048,0.19736842105263153
334,1090.622537431048,0.1907894736842105
335,1093.4200157604414,0.20394736842105265
336,1093.4200157604414,0.21052631578947367
337,1096.2174940898344,0.21052631578947367
338,1099.014972419228,0.21052631578947367
339,1101.812450748621,0.2171052631578947
340,1101.812450748621,0.21052631578947367
341,1104.6099290780144,0.2171052631578947
342,1104.6099290780144,0.23026315789473684
343,1104.6099290780144,0.22368421052631582
344,1107.4074074074074,0.24342105263157898
345,1107.4074074074074,0.23684210526315785
346,1107.4074074074074,0.23026315789473684
347,1110.2048857368004,0.24342105263157898
348,1110.2048857368004,0.25
349,1110.2048857368004,0.256578947368421
350,1113.0023640661939,0.256578947368421
351,1115.799842395587,0.256578947368421
352,1115.799842395587,0.26315789473684215
353,1118.5973207249804,0.26315789473684215
354,1121.3947990543734,0.2763157894736842
355,1121.3947990543734,0.26973684210526316
356,1121.3947990543734,0.26315789473684215
357,1124.1922773837669,0.2763157894736842
358,1124.1922773837669,0.2828947368421053
359,1124.1922773837669,0.2894736842105263
360,1126.9897557131599,0.29605263157894735
361,1126.9897557131599,0.2894736842105263
362,1129.7872340425533,0.29605263157894735
363,1129.7872340425533,0.3026315789473685
364,1129.7872340425533,0.3092105263157895
365,1129.7872340425533,0.32894736842105265
366,1129.7872340425533,0.3223684210526315
367,1129.7872340425533,0.3157894736842105
368,1132.5847123719464,0.3421052631578947
369,1132.5847123719464,0.3355263157894737
370,1132.5847123719464,0.32894736842105265
371,1135.3821907013398,0.368421052631579
372,1135.3821907013398,0.36184210526315785
373,1135.3821907013398,0.375
374,1135.3821907013398,0.35526315789473684
375,1135.3821907013398,0.3486842105263158
376,1135.3821907013398,0.3421052631578947
377,1138.1796690307328,0.375
378,1138.1796690307328,0.381578947368421
379,1138.1796690307328,0.38815789473684215
380,1140.9771473601263,0.4144736842105263
381,1140.9771473601263,0.42105263157894735
382,1140.9771473601263,0.39473684210526316
383,1140.9771473601263,0.4276315789473685
384,1140.9771473601263,0.4013157894736842
385,1140.9771473601263,0.38815789473684215
386,1140.9771473601263,0.4078947368421053
387,1143.7746256895193,0.4276315789473685
388,1143.7746256895193,0.4342105263157895
389,1143.7746256895193,0.4473684210526315
390,1143.7746256895193,0.4407894736842105
391,1146.5721040189123,0.4605263157894737
392,1146.5721040189123,0.493421052631579
393,1146.5721040189123,0.48026315789473684
394,1146.5721040189123,0.4736842105263158
395,1146.5721040189123,0.4473684210526315
396,1146.5721040189123,0.48684210526315785
397,1146.5721040189123,0.4671052631578947
398,1146.5721040189123,0.45394736842105265
399,1149.3695823483058,0.493421052631579
400,1149.3695823483058,0.5
401,1149.3695823483058,0.506578947368421
402,1149.3695823483058,0.513157894736842
403,1152.1670606776988,0.5460526315789473
404,1152.1670606776988,0.5328947368421053
405,1152.1670606776988,0.5263157894736843
406,1152.1670606776988,0.5394736842105263
407,1152.1670606776988,0.513157894736842
408,1152.1670606776988,0.5197368421052632
409,1154.9645390070923,0.5526315789473684
410,1154.9645390070923,0.5460526315789473
411,1157.7620173364853,0.5526315789473684
412,1160.5594956658788,0.5394736842105263
413,1160.5594956658788,0.5460526315789473
414,1160.5594956658788,0.5526315789473684
415,1163.3569739952718,0.5328947368421053
416,1163.3569739952718,0.5394736842105263
417,1166.1544523246653,0.5328947368421053
418,1168.9519306540583,0.5460526315789473
419,1168.9519306540583,0.5328947368421053
420,1168.9519306540583,0.5394736842105263
421,1171.7494089834518,0.5592105263157895
422,1171.7494089834518,0.5460526315789473
423,1171.7494089834518,0.5526315789473684
424,1174.5468873128448,0.5592105263157895
425,1177.3443656422378,0.5526315789473684
426,1177.3443656422378,0.5394736842105263
427,1177.3443656422378,0.5592105263157895
428,1177.3443656422378,0.5460526315789473
429,1180.1418439716313,0.5394736842105263
430,1180.1418439716313,0.5328947368421053
431,1180.1418439716313,0.5197368421052632
432,1180.1418439716313,0.5263157894736843
433,1182.9393223010243,0.506578947368421
434,1182.9393223010243,0.513157894736842
435,1182.9393223010243,0.5
436,1182.9393223010243,0.5197368421052632
437,1185.7368006304177,0.4736842105263158
438,1185.7368006304177,0.493421052631579
439,1185.7368006304177,0.4671052631578947
440,1185.7368006304177,0.4605263157894737
441,1185.7368006304177,0.48684210526315785
442,1185.7368006304177,0.48026315789473684
443,1185.7368006304177,0.5
444,1188.5342789598108,0.45394736842105265
445,1188.5342789598108,0.4605263157894737
446,1188.5342789598108,0.4407894736842105
447,1188.5342789598108,0.4473684210526315
448,1188.5342789598108,0.4342105263157895
449,1191.3317572892042,0.4342105263157895
450,1191.3317572892042,0.4078947368421053
451,1191.3317572892042,0.38815789473684215
452,1191.3317572892042,0.42105263157894735
453,1191.3317572892042,0.4144736842105263
454,1191.3317572892042,0.4276315789473685
455,1191.3317572892042,0.39473684210526316
456,1191.3317572892042,0.381578947368421
457,1191.3317572892042,0.4013157894736842
458,1194.1292356185972,0.368421052631579
459,1194.1292356185972,0.381578947368421
460,1194.1292356185972,0.36184210526315785
461,1194.1292356185972,0.375
462,1194.1292356185972,0.35526315789473684
463,1196.9267139479907,0.32894736842105265
464,1196.9267139479907,0.3092105263157895
465,1196.9267139479907,0.35526315789473684
466,1196.9267139479907,0.3223684210526315
467,1196.9267139479907,0.3157894736842105
468,1196.9267139479907,0.3421052631578947
469,1196.9267139479907,0.3355263157894737
