,wavenumbers,absorbance
0,452.797478329393,0.052631578947368474
1,455.5949566587865,0.052631578947368474
2,458.3924349881795,0.052631578947368474
3,461.189913317573,0.052631578947368474
4,463.987391646966,0.052631578947368474
5,466.78486997635946,0.052631578947368474
6,469.5823483057525,0.046052631578947345
7,472.37982663514595,0.046052631578947345
8,475.17730496453896,0.046052631578947345
9,477.97478329393243,0.03947368421052633
10,477.97478329393243,0.046052631578947345
11,480.77226162332545,0.03947368421052633
12,483.56973995271846,0.03947368421052633
13,486.36721828211193,0.03947368421052633
14,489.16469661150495,0.03947368421052633
15,491.9621749408984,0.03947368421052633
16,494.75965327029144,0.03947368421052633
17,497.5571315996849,0.03947368421052633
18,500.3546099290779,0.03947368421052633
19,500.3546099290779,0.046052631578947345
20,503.1520882584714,0.046052631578947345
21,505.9495665878644,0.046052631578947345
22,508.7470449172579,0.046052631578947345
23,508.7470449172579,0.052631578947368474
24,511.5445232466509,0.052631578947368474
25,514.3420015760439,0.052631578947368474
26,517.1394799054374,0.05921052631578949
27,517.1394799054374,0.052631578947368474
28,519.9369582348304,0.06578947368421051
29,519.9369582348304,0.05921052631578949
30,522.7344365642239,0.06578947368421051
31,525.5319148936169,0.06578947368421051
32,525.5319148936169,0.07236842105263153
33,525.5319148936169,0.07894736842105265
34,525.5319148936169,0.08552631578947367
35,528.3293932230104,0.09210526315789469
36,528.3293932230104,0.08552631578947367
37,531.1268715524034,0.09210526315789469
38,531.1268715524034,0.09868421052631582
39,533.9243498817968,0.11842105263157898
40,533.9243498817968,0.10526315789473684
41,533.9243498817968,0.11184210526315785
42,533.9243498817968,0.09868421052631582
43,536.7218282111899,0.11842105263157898
44,539.5193065405833,0.11842105263157898
45,542.3167848699763,0.11184210526315785
46,542.3167848699763,0.11842105263157898
47,545.1142631993694,0.11184210526315785
48,547.9117415287628,0.10526315789473684
49,547.9117415287628,0.11184210526315785
50,550.7092198581558,0.09868421052631582
51,550.7092198581558,0.10526315789473684
52,553.5066981875493,0.09868421052631582
53,556.3041765169423,0.09210526315789469
54,556.3041765169423,0.09868421052631582
55,559.1016548463358,0.08552631578947367
56,559.1016548463358,0.09210526315789469
57,561.8991331757288,0.07894736842105265
58,561.8991331757288,0.08552631578947367
59,564.6966115051223,0.07894736842105265
60,564.6966115051223,0.07236842105263153
61,567.4940898345153,0.07236842105263153
62,570.2915681639088,0.06578947368421051
63,570.2915681639088,0.07236842105263153
64,570.2915681639088,0.05921052631578949
65,573.0890464933018,0.05921052631578949
66,575.8865248226948,0.05921052631578949
67,575.8865248226948,0.052631578947368474
68,578.6840031520883,0.052631578947368474
69,581.4814814814813,0.052631578947368474
70,581.4814814814813,0.046052631578947345
71,584.2789598108748,0.046052631578947345
72,587.0764381402678,0.046052631578947345
73,589.8739164696613,0.046052631578947345
74,589.8739164696613,0.03947368421052633
75,592.6713947990543,0.03947368421052633
76,595.4688731284477,0.03947368421052633
77,598.2663514578408,0.03947368421052633
78,598.2663514578408,0.03289473684210531
79,601.0638297872342,0.03289473684210531
80,603.8613081166272,0.03289473684210531
81,606.6587864460207,0.03289473684210531
82,609.4562647754137,0.03289473684210531
83,612.2537431048067,0.02631578947368418
84,612.2537431048067,0.03289473684210531
85,615.0512214342002,0.03289473684210531
86,617.8486997635932,0.03289473684210531
87,620.6461780929867,0.03289473684210531
88,620.6461780929867,0.02631578947368418
89,623.4436564223797,0.02631578947368418
90,626.2411347517732,0.019736842105263164
91,626.2411347517732,0.02631578947368418
92,629.0386130811662,0.019736842105263164
93,631.8360914105597,0.019736842105263164
94,634.6335697399527,0.019736842105263164
95,637.4310480693462,0.019736842105263164
96,640.2285263987392,0.019736842105263164
97,643.0260047281322,0.019736842105263164
98,645.8234830575257,0.019736842105263164
99,648.6209613869187,0.019736842105263164
100,651.4184397163122,0.019736842105263164
101,654.2159180457052,0.02631578947368418
102,654.2159180457052,0.019736842105263164
103,657.0133963750986,0.02631578947368418
104,659.8108747044917,0.02631578947368418
105,662.6083530338851,0.02631578947368418
106,662.6083530338851,0.03289473684210531
107,665.4058313632781,0.03289473684210531
108,668.2033096926716,0.03289473684210531
109,671.0007880220646,0.03289473684210531
110,671.0007880220646,0.03947368421052633
111,673.7982663514576,0.03947368421052633
112,676.5957446808511,0.03947368421052633
113,676.5957446808511,0.046052631578947345
114,679.3932230102441,0.046052631578947345
115,679.3932230102441,0.052631578947368474
116,682.1907013396376,0.05921052631578949
117,682.1907013396376,0.07236842105263153
118,682.1907013396376,0.052631578947368474
119,682.1907013396376,0.06578947368421051
120,684.9881796690306,0.07236842105263153
121,684.9881796690306,0.08552631578947367
122,684.9881796690306,0.09210526315789469
123,684.9881796690306,0.07894736842105265
124,687.7856579984241,0.13157894736842102
125,687.7856579984241,0.11184210526315785
126,687.7856579984241,0.14473684210526316
127,687.7856579984241,0.09210526315789469
128,687.7856579984241,0.17763157894736847
129,687.7856579984241,0.23026315789473684
130,687.7856579984241,0.20394736842105265
131,687.7856579984241,0.13815789473684215
132,687.7856579984241,0.19736842105263153
133,687.7856579984241,0.10526315789473684
134,687.7856579984241,0.1907894736842105
135,687.7856579984241,0.21052631578947367
136,687.7856579984241,0.1842105263157895
137,687.7856579984241,0.09868421052631582
138,687.7856579984241,0.11842105263157898
139,687.7856579984241,0.22368421052631582
140,687.7856579984241,0.2171052631578947
141,687.7856579984241,0.15131578947368418
142,687.7856579984241,0.1578947368421053
143,687.7856579984241,0.16447368421052633
144,687.7856579984241,0.125
145,687.7856579984241,0.17105263157894735
146,690.5831363278171,0.23026315789473684
147,690.5831363278171,0.26973684210526316
148,690.5831363278171,0.3026315789473685
149,690.5831363278171,0.4473684210526315
150,690.5831363278171,0.375
151,690.5831363278171,0.36184210526315785
152,690.5831363278171,0.32894736842105265
153,690.5831363278171,0.4144736842105263
154,690.5831363278171,0.38815789473684215
155,690.5831363278171,0.381578947368421
156,690.5831363278171,0.368421052631579
157,690.5831363278171,0.48026315789473684
158,690.5831363278171,0.3223684210526315
159,690.5831363278171,0.39473684210526316
160,690.5831363278171,0.4736842105263158
161,690.5831363278171,0.4078947368421053
162,690.5831363278171,0.2894736842105263
163,690.5831363278171,0.4671052631578947
164,690.5831363278171,0.45394736842105265
165,690.5831363278171,0.3486842105263158
166,690.5831363278171,0.2763157894736842
167,690.5831363278171,0.4605263157894737
168,690.5831363278171,0.24342105263157898
169,690.5831363278171,0.25
170,690.5831363278171,0.3421052631578947
171,690.5831363278171,0.23684210526315785
172,690.5831363278171,0.256578947368421
173,690.5831363278171,0.42105263157894735
174,690.5831363278171,0.26315789473684215
175,690.5831363278171,0.29605263157894735
176,690.5831363278171,0.4276315789473685
177,690.5831363278171,0.4342105263157895
178,690.5831363278171,0.3092105263157895
179,690.5831363278171,0.3157894736842105
180,690.5831363278171,0.4407894736842105
181,690.5831363278171,0.4013157894736842
182,690.5831363278171,0.2828947368421053
183,690.5831363278171,0.35526315789473684
184,690.5831363278171,0.3355263157894737
185,693.3806146572106,1.0
186,693.3806146572106,0.9407894736842105
187,693.3806146572106,0.9605263157894737
188,693.3806146572106,0.9276315789473684
189,693.3806146572106,0.9473684210526316
190,693.3806146572106,0.9539473684210527
191,693.3806146572106,0.9144736842105263
192,693.3806146572106,0.881578947368421
193,693.3806146572106,0.993421052631579
194,693.3806146572106,0.9342105263157895
195,693.3806146572106,0.875
196,693.3806146572106,0.868421052631579
197,693.3806146572106,0.9736842105263158
198,693.3806146572106,0.8881578947368421
199,693.3806146572106,0.8947368421052632
200,693.3806146572106,0.9078947368421053
201,693.3806146572106,0.8618421052631579
202,693.3806146572106,0.8552631578947368
203,693.3806146572106,0.8486842105263158
204,693.3806146572106,0.9013157894736842
205,693.3806146572106,0.9868421052631579
206,693.3806146572106,0.8421052631578947
207,693.3806146572106,0.9671052631578947
208,693.3806146572106,0.9802631578947368
209,693.3806146572106,0.9210526315789473
210,693.3806146572106,0.7105263157894737
211,693.3806146572106,0.8289473684210527
212,693.3806146572106,0.743421052631579
213,693.3806146572106,0.5855263157894737
214,693.3806146572106,0.5921052631578947
215,693.3806146572106,0.5986842105263157
216,693.3806146572106,0.736842105263158
217,693.3806146572106,0.6052631578947368
218,693.3806146572106,0.611842105263158
219,693.3806146572106,0.7302631578947368
220,693.3806146572106,0.618421052631579
221,693.3806146572106,0.625
222,693.3806146572106,0.631578947368421
223,693.3806146572106,0.638157894736842
224,693.3806146572106,0.6447368421052632
225,693.3806146572106,0.7236842105263157
226,693.3806146572106,0.6513157894736843
227,693.3806146572106,0.6578947368421053
228,693.3806146572106,0.6644736842105263
229,693.3806146572106,0.6710526315789473
230,693.3806146572106,0.6776315789473684
231,693.3806146572106,0.6842105263157895
232,693.3806146572106,0.6907894736842105
233,693.3806146572106,0.7171052631578947
234,693.3806146572106,0.6973684210526316
235,693.3806146572106,0.5789473684210527
236,693.3806146572106,0.5723684210526316
237,693.3806146572106,0.5657894736842105
238,693.3806146572106,0.75
239,693.3806146572106,0.8223684210526316
240,693.3806146572106,0.8157894736842105
241,693.3806146572106,0.8092105263157895
242,693.3806146572106,0.48026315789473684
243,693.3806146572106,0.48684210526315785
244,693.3806146572106,0.493421052631579
245,693.3806146572106,0.8026315789473684
246,693.3806146572106,0.7960526315789473
247,693.3806146572106,0.5
248,693.3806146572106,0.7039473684210527
249,693.3806146572106,0.506578947368421
250,693.3806146572106,0.8355263157894737
251,693.3806146572106,0.513157894736842
252,693.3806146572106,0.7828947368421053
253,693.3806146572106,0.7763157894736842
254,693.3806146572106,0.5263157894736843
255,693.3806146572106,0.7697368421052632
256,693.3806146572106,0.7631578947368421
257,693.3806146572106,0.5328947368421053
258,693.3806146572106,0.756578947368421
259,693.3806146572106,0.5394736842105263
260,693.3806146572106,0.5460526315789473
261,693.3806146572106,0.5526315789473684
262,693.3806146572106,0.5592105263157895
263,693.3806146572106,0.5197368421052632
264,693.3806146572106,0.7894736842105263
265,696.1780929866036,1.0
266,696.1780929866036,0.9013157894736842
267,696.1780929866036,0.875
268,696.1780929866036,0.881578947368421
269,696.1780929866036,0.8881578947368421
270,696.1780929866036,0.8947368421052632
271,696.1780929866036,0.9078947368421053
272,696.1780929866036,0.9144736842105263
273,696.1780929866036,0.9210526315789473
274,696.1780929866036,0.9342105263157895
275,696.1780929866036,0.9276315789473684
276,696.1780929866036,0.9473684210526316
277,696.1780929866036,0.9539473684210527
278,696.1780929866036,0.9605263157894737
279,696.1780929866036,0.9671052631578947
280,696.1780929866036,0.9736842105263158
281,696.1780929866036,0.9802631578947368
282,696.1780929866036,0.9868421052631579
283,696.1780929866036,0.993421052631579
284,696.1780929866036,0.9407894736842105
285,698.9755713159971,0.7631578947368421
286,698.9755713159971,0.7828947368421053
287,698.9755713159971,0.7763157894736842
288,698.9755713159971,0.7697368421052632
289,698.9755713159971,0.756578947368421
290,698.9755713159971,0.4342105263157895
291,698.9755713159971,0.743421052631579
292,698.9755713159971,0.736842105263158
293,698.9755713159971,0.7302631578947368
294,698.9755713159971,0.7894736842105263
295,698.9755713159971,0.75
296,698.9755713159971,0.7960526315789473
297,698.9755713159971,0.8618421052631579
298,698.9755713159971,0.8092105263157895
299,698.9755713159971,0.8157894736842105
300,698.9755713159971,0.8223684210526316
301,698.9755713159971,0.8289473684210527
302,698.9755713159971,0.8355263157894737
303,698.9755713159971,0.8421052631578947
304,698.9755713159971,0.8486842105263158
305,698.9755713159971,0.8552631578947368
306,698.9755713159971,0.7236842105263157
307,698.9755713159971,0.868421052631579
308,698.9755713159971,0.875
309,698.9755713159971,0.8026315789473684
310,698.9755713159971,0.7105263157894737
311,698.9755713159971,0.7171052631578947
312,698.9755713159971,0.6973684210526316
313,698.9755713159971,0.5723684210526316
314,698.9755713159971,0.5657894736842105
315,698.9755713159971,0.5592105263157895
316,698.9755713159971,0.5526315789473684
317,698.9755713159971,0.5460526315789473
318,698.9755713159971,0.5394736842105263
319,698.9755713159971,0.5328947368421053
320,698.9755713159971,0.5263157894736843
321,698.9755713159971,0.5197368421052632
322,698.9755713159971,0.7039473684210527
323,698.9755713159971,0.513157894736842
324,698.9755713159971,0.493421052631579
325,698.9755713159971,0.48684210526315785
326,698.9755713159971,0.48026315789473684
327,698.9755713159971,0.4736842105263158
328,698.9755713159971,0.4671052631578947
329,698.9755713159971,0.4605263157894737
330,698.9755713159971,0.45394736842105265
331,698.9755713159971,0.4473684210526315
332,698.9755713159971,0.4407894736842105
333,698.9755713159971,0.506578947368421
334,698.9755713159971,0.5855263157894737
335,698.9755713159971,0.5789473684210527
336,698.9755713159971,0.5921052631578947
337,698.9755713159971,0.6907894736842105
338,698.9755713159971,0.6842105263157895
339,698.9755713159971,0.6776315789473684
340,698.9755713159971,0.6710526315789473
341,698.9755713159971,0.6644736842105263
342,698.9755713159971,0.6578947368421053
343,698.9755713159971,0.6447368421052632
344,698.9755713159971,0.6513157894736843
345,698.9755713159971,0.611842105263158
346,698.9755713159971,0.5986842105263157
347,698.9755713159971,0.6052631578947368
348,698.9755713159971,0.638157894736842
349,698.9755713159971,0.618421052631579
350,698.9755713159971,0.5
351,698.9755713159971,0.631578947368421
352,698.9755713159971,0.625
353,701.7730496453901,0.2894736842105263
354,701.7730496453901,0.3026315789473685
355,701.7730496453901,0.3223684210526315
356,701.7730496453901,0.3092105263157895
357,701.7730496453901,0.26973684210526316
358,701.7730496453901,0.2763157894736842
359,701.7730496453901,0.29605263157894735
360,701.7730496453901,0.2828947368421053
361,701.7730496453901,0.3157894736842105
362,701.7730496453901,0.4276315789473685
363,701.7730496453901,0.32894736842105265
364,701.7730496453901,0.36184210526315785
365,701.7730496453901,0.368421052631579
366,701.7730496453901,0.375
367,701.7730496453901,0.381578947368421
368,701.7730496453901,0.35526315789473684
369,701.7730496453901,0.38815789473684215
370,701.7730496453901,0.39473684210526316
371,701.7730496453901,0.4078947368421053
372,701.7730496453901,0.4144736842105263
373,701.7730496453901,0.4013157894736842
374,701.7730496453901,0.3486842105263158
375,701.7730496453901,0.3355263157894737
376,701.7730496453901,0.26315789473684215
377,701.7730496453901,0.4342105263157895
378,701.7730496453901,0.3421052631578947
379,701.7730496453901,0.42105263157894735
380,704.5705279747831,0.16447368421052633
381,704.5705279747831,0.2171052631578947
382,704.5705279747831,0.1578947368421053
383,704.5705279747831,0.22368421052631582
384,704.5705279747831,0.25
385,704.5705279747831,0.24342105263157898
386,704.5705279747831,0.23026315789473684
387,704.5705279747831,0.21052631578947367
388,704.5705279747831,0.23684210526315785
389,704.5705279747831,0.256578947368421
390,704.5705279747831,0.17105263157894735
391,704.5705279747831,0.15131578947368418
392,704.5705279747831,0.26315789473684215
393,704.5705279747831,0.20394736842105265
394,704.5705279747831,0.19736842105263153
395,704.5705279747831,0.17763157894736847
396,704.5705279747831,0.1907894736842105
397,704.5705279747831,0.1842105263157895
398,707.3680063041766,0.13815789473684215
399,707.3680063041766,0.13157894736842102
400,707.3680063041766,0.125
401,707.3680063041766,0.11842105263157898
402,707.3680063041766,0.11184210526315785
403,707.3680063041766,0.10526315789473684
404,707.3680063041766,0.09868421052631582
405,707.3680063041766,0.07236842105263153
406,707.3680063041766,0.09210526315789469
407,707.3680063041766,0.08552631578947367
408,707.3680063041766,0.07894736842105265
409,707.3680063041766,0.14473684210526316
410,707.3680063041766,0.15131578947368418
411,707.3680063041766,0.06578947368421051
412,707.3680063041766,0.05921052631578949
413,710.1654846335696,0.052631578947368474
414,710.1654846335696,0.046052631578947345
415,710.1654846335696,0.05921052631578949
416,712.962962962963,0.03947368421052633
417,712.962962962963,0.046052631578947345
418,712.962962962963,0.03289473684210531
419,715.7604412923561,0.03289473684210531
420,718.5579196217495,0.03289473684210531
421,721.3553979511425,0.03289473684210531
422,721.3553979511425,0.03947368421052633
423,724.152876280536,0.03947368421052633
424,724.152876280536,0.046052631578947345
425,726.950354609929,0.046052631578947345
426,726.950354609929,0.052631578947368474
427,729.7478329393225,0.052631578947368474
428,729.7478329393225,0.05921052631578949
429,732.5453112687155,0.07894736842105265
430,732.5453112687155,0.08552631578947367
431,732.5453112687155,0.05921052631578949
432,732.5453112687155,0.07236842105263153
433,732.5453112687155,0.06578947368421051
434,735.3427895981085,0.09210526315789469
435,735.3427895981085,0.09868421052631582
436,735.3427895981085,0.08552631578947367
437,738.140267927502,0.09868421052631582
438,738.140267927502,0.11842105263157898
439,738.140267927502,0.10526315789473684
440,738.140267927502,0.11184210526315785
441,738.140267927502,0.13157894736842102
442,738.140267927502,0.125
443,740.937746256895,0.14473684210526316
444,740.937746256895,0.13157894736842102
445,740.937746256895,0.15131578947368418
446,740.937746256895,0.1578947368421053
447,740.937746256895,0.13815789473684215
448,743.7352245862885,0.17105263157894735
449,743.7352245862885,0.1578947368421053
450,743.7352245862885,0.17763157894736847
451,743.7352245862885,0.16447368421052633
452,743.7352245862885,0.1842105263157895
453,743.7352245862885,0.1907894736842105
454,746.5327029156815,0.19736842105263153
455,746.5327029156815,0.1907894736842105
456,749.330181245075,0.19736842105263153
457,749.330181245075,0.22368421052631582
458,749.330181245075,0.2171052631578947
459,749.330181245075,0.20394736842105265
460,749.330181245075,0.23026315789473684
461,749.330181245075,0.21052631578947367
462,752.127659574468,0.23684210526315785
463,752.127659574468,0.23026315789473684
464,752.127659574468,0.24342105263157898
465,754.9251379038615,0.25
466,754.9251379038615,0.24342105263157898
467,757.7226162332545,0.24342105263157898
468,757.7226162332545,0.25
469,757.7226162332545,0.23684210526315785
470,760.520094562648,0.23684210526315785
471,760.520094562648,0.23026315789473684
472,760.520094562648,0.22368421052631582
473,760.520094562648,0.2171052631578947
474,763.317572892041,0.17763157894736847
475,763.317572892041,0.17105263157894735
476,763.317572892041,0.21052631578947367
477,763.317572892041,0.1842105263157895
478,763.317572892041,0.1907894736842105
