,wavenumbers,absorbance
0,452.797478329393,0.03947368421052633
1,452.797478329393,0.046052631578947345
2,455.5949566587865,0.03947368421052633
3,458.3924349881795,0.046052631578947345
4,458.3924349881795,0.03947368421052633
5,461.189913317573,0.046052631578947345
6,461.189913317573,0.052631578947368474
7,463.987391646966,0.052631578947368474
8,463.987391646966,0.046052631578947345
9,466.78486997635946,0.046052631578947345
10,469.5823483057525,0.046052631578947345
11,469.5823483057525,0.03947368421052633
12,472.37982663514595,0.03947368421052633
13,475.17730496453896,0.03289473684210531
14,475.17730496453896,0.03947368421052633
15,477.97478329393243,0.03289473684210531
16,480.77226162332545,0.03289473684210531
17,483.56973995271846,0.03289473684210531
18,486.36721828211193,0.03289473684210531
19,489.16469661150495,0.03289473684210531
20,491.9621749408984,0.03289473684210531
21,494.75965327029144,0.03289473684210531
22,497.5571315996849,0.03289473684210531
23,500.3546099290779,0.03289473684210531
24,503.1520882584714,0.03289473684210531
25,505.9495665878644,0.03289473684210531
26,508.7470449172579,0.03289473684210531
27,511.5445232466509,0.03289473684210531
28,514.3420015760439,0.03289473684210531
29,517.1394799054374,0.03289473684210531
30,519.9369582348304,0.03289473684210531
31,522.7344365642239,0.02631578947368418
32,522.7344365642239,0.03289473684210531
33,525.5319148936169,0.02631578947368418
34,528.3293932230104,0.02631578947368418
35,531.1268715524034,0.02631578947368418
36,533.9243498817968,0.02631578947368418
37,536.7218282111899,0.02631578947368418
38,539.5193065405833,0.02631578947368418
39,542.3167848699763,0.02631578947368418
40,545.1142631993694,0.02631578947368418
41,547.9117415287628,0.02631578947368418
42,550.7092198581558,0.02631578947368418
43,553.5066981875493,0.02631578947368418
44,556.3041765169423,0.02631578947368418
45,559.1016548463358,0.02631578947368418
46,561.8991331757288,0.02631578947368418
47,564.6966115051223,0.02631578947368418
48,567.4940898345153,0.02631578947368418
49,570.2915681639088,0.02631578947368418
50,573.0890464933018,0.02631578947368418
51,575.8865248226948,0.02631578947368418
52,578.6840031520883,0.02631578947368418
53,581.4814814814813,0.02631578947368418
54,581.4814814814813,0.03289473684210531
55,584.2789598108748,0.03289473684210531
56,587.0764381402678,0.03289473684210531
57,589.8739164696613,0.046052631578947345
58,589.8739164696613,0.03947368421052633
59,589.8739164696613,0.03289473684210531
60,592.6713947990543,0.052631578947368474
61,592.6713947990543,0.046052631578947345
62,595.4688731284477,0.07894736842105265
63,595.4688731284477,0.06578947368421051
64,595.4688731284477,0.05921052631578949
65,595.4688731284477,0.07236842105263153
66,595.4688731284477,0.052631578947368474
67,598.2663514578408,0.07894736842105265
68,598.2663514578408,0.08552631578947367
69,598.2663514578408,0.09210526315789469
70,601.0638297872342,0.09210526315789469
71,601.0638297872342,0.09868421052631582
72,601.0638297872342,0.10526315789473684
73,603.8613081166272,0.09868421052631582
74,603.8613081166272,0.09210526315789469
75,606.6587864460207,0.08552631578947367
76,606.6587864460207,0.06578947368421051
77,606.6587864460207,0.07894736842105265
78,606.6587864460207,0.09210526315789469
79,606.6587864460207,0.07236842105263153
80,609.4562647754137,0.05921052631578949
81,609.4562647754137,0.06578947368421051
82,612.2537431048067,0.046052631578947345
83,612.2537431048067,0.05921052631578949
84,612.2537431048067,0.052631578947368474
85,615.0512214342002,0.046052631578947345
86,617.8486997635932,0.046052631578947345
87,620.6461780929867,0.046052631578947345
88,623.4436564223797,0.052631578947368474
89,623.4436564223797,0.046052631578947345
90,626.2411347517732,0.052631578947368474
91,629.0386130811662,0.052631578947368474
92,631.8360914105597,0.052631578947368474
93,631.8360914105597,0.046052631578947345
94,634.6335697399527,0.046052631578947345
95,637.4310480693462,0.03947368421052633
96,637.4310480693462,0.046052631578947345
97,640.2285263987392,0.03947368421052633
98,643.0260047281322,0.03947368421052633
99,645.8234830575257,0.03947368421052633
100,648.6209613869187,0.03947368421052633
101,651.4184397163122,0.03947368421052633
102,654.2159180457052,0.03947368421052633
103,657.0133963750986,0.03947368421052633
104,659.8108747044917,0.03947368421052633
105,662.6083530338851,0.03289473684210531
106,662.6083530338851,0.03947368421052633
107,665.4058313632781,0.03289473684210531
108,668.2033096926716,0.02631578947368418
109,668.2033096926716,0.03289473684210531
110,671.0007880220646,0.02631578947368418
111,673.7982663514576,0.02631578947368418
112,676.5957446808511,0.02631578947368418
113,679.3932230102441,0.02631578947368418
114,682.1907013396376,0.02631578947368418
115,684.9881796690306,0.02631578947368418
116,687.7856579984241,0.02631578947368418
117,687.7856579984241,0.019736842105263164
118,690.5831363278171,0.019736842105263164
119,693.3806146572106,0.019736842105263164
120,696.1780929866036,0.019736842105263164
121,698.9755713159971,0.019736842105263164
122,701.7730496453901,0.019736842105263164
123,704.5705279747831,0.019736842105263164
124,707.3680063041766,0.019736842105263164
125,710.1654846335696,0.019736842105263164
126,712.962962962963,0.019736842105263164
127,715.7604412923561,0.019736842105263164
128,718.5579196217495,0.019736842105263164
129,721.3553979511425,0.019736842105263164
130,724.152876280536,0.019736842105263164
131,726.950354609929,0.02631578947368418
132,726.950354609929,0.019736842105263164
133,729.7478329393225,0.02631578947368418
134,732.5453112687155,0.02631578947368418
135,735.3427895981085,0.02631578947368418
136,738.140267927502,0.02631578947368418
137,740.937746256895,0.02631578947368418
138,743.7352245862885,0.02631578947368418
139,743.7352245862885,0.03289473684210531
140,746.5327029156815,0.03289473684210531
141,749.330181245075,0.03289473684210531
142,752.127659574468,0.03289473684210531
143,754.9251379038615,0.03289473684210531
144,757.7226162332545,0.02631578947368418
145,757.7226162332545,0.03289473684210531
146,760.520094562648,0.02631578947368418
147,763.317572892041,0.02631578947368418
148,766.115051221434,0.02631578947368418
149,768.9125295508275,0.02631578947368418
150,771.7100078802205,0.02631578947368418
151,774.507486209614,0.02631578947368418
152,777.304964539007,0.02631578947368418
153,780.1024428684004,0.03289473684210531
154,780.1024428684004,0.02631578947368418
155,782.8999211977934,0.03289473684210531
156,785.6973995271869,0.03289473684210531
157,785.6973995271869,0.03947368421052633
158,788.4948778565799,0.03947368421052633
159,788.4948778565799,0.046052631578947345
160,791.2923561859734,0.046052631578947345
161,794.0898345153664,0.046052631578947345
162,796.8873128447594,0.046052631578947345
163,799.6847911741529,0.03947368421052633
164,799.6847911741529,0.046052631578947345
165,802.4822695035459,0.03947368421052633
166,805.2797478329394,0.03947368421052633
167,808.0772261623324,0.03947368421052633
168,810.8747044917259,0.03947368421052633
169,810.8747044917259,0.03289473684210531
170,813.6721828211189,0.03289473684210531
171,816.4696611505124,0.03947368421052633
172,816.4696611505124,0.03289473684210531
173,819.2671394799054,0.03289473684210531
174,819.2671394799054,0.03947368421052633
175,822.0646178092989,0.03289473684210531
176,824.8620961386919,0.03289473684210531
177,827.6595744680849,0.03947368421052633
178,827.6595744680849,0.03289473684210531
179,830.4570527974784,0.03947368421052633
180,833.2545311268714,0.03947368421052633
181,836.0520094562648,0.03947368421052633
182,838.8494877856579,0.03947368421052633
183,841.6469661150513,0.03947368421052633
184,844.4444444444443,0.03947368421052633
185,847.2419227738378,0.03947368421052633
186,847.2419227738378,0.03289473684210531
187,850.0394011032308,0.03289473684210531
188,852.8368794326243,0.03289473684210531
189,855.6343577620173,0.03289473684210531
190,858.4318360914103,0.03289473684210531
191,861.2293144208038,0.03289473684210531
192,864.0267927501968,0.03289473684210531
193,866.8242710795903,0.03289473684210531
194,869.6217494089833,0.03289473684210531
195,872.4192277383768,0.03289473684210531
196,875.2167060677698,0.03947368421052633
197,875.2167060677698,0.03289473684210531
198,878.0141843971633,0.03947368421052633
199,880.8116627265563,0.03947368421052633
200,883.6091410559497,0.03947368421052633
201,886.4066193853428,0.03947368421052633
202,889.2040977147362,0.03947368421052633
203,892.0015760441293,0.03947368421052633
204,894.7990543735223,0.03947368421052633
205,897.5965327029157,0.046052631578947345
206,897.5965327029157,0.03947368421052633
207,900.3940110323088,0.046052631578947345
208,903.1914893617022,0.046052631578947345
209,905.9889676910952,0.052631578947368474
210,905.9889676910952,0.046052631578947345
211,908.7864460204887,0.052631578947368474
212,911.5839243498817,0.052631578947368474
213,911.5839243498817,0.05921052631578949
214,914.3814026792752,0.05921052631578949
215,917.1788810086682,0.05921052631578949
216,917.1788810086682,0.06578947368421051
217,919.9763593380617,0.06578947368421051
218,919.9763593380617,0.07236842105263153
219,922.7738376674547,0.07894736842105265
220,922.7738376674547,0.07236842105263153
221,925.5713159968477,0.07894736842105265
222,925.5713159968477,0.08552631578947367
223,928.3687943262412,0.09210526315789469
224,928.3687943262412,0.08552631578947367
225,931.1662726556342,0.09210526315789469
226,931.1662726556342,0.10526315789473684
227,931.1662726556342,0.11184210526315785
228,931.1662726556342,0.09868421052631582
229,933.9637509850277,0.11842105263157898
230,933.9637509850277,0.11184210526315785
231,936.7612293144207,0.125
232,936.7612293144207,0.13815789473684215
233,936.7612293144207,0.13157894736842102
234,936.7612293144207,0.11842105263157898
235,939.5587076438142,0.14473684210526316
236,939.5587076438142,0.13815789473684215
237,942.3561859732072,0.14473684210526316
238,945.1536643026006,0.14473684210526316
239,945.1536643026006,0.13815789473684215
240,947.9511426319937,0.125
241,947.9511426319937,0.11842105263157898
242,947.9511426319937,0.13815789473684215
243,947.9511426319937,0.13157894736842102
244,950.7486209613871,0.11184210526315785
245,950.7486209613871,0.11842105263157898
246,950.7486209613871,0.10526315789473684
247,953.5460992907801,0.09868421052631582
248,953.5460992907801,0.10526315789473684
249,956.3435776201732,0.09868421052631582
250,956.3435776201732,0.09210526315789469
251,959.1410559495666,0.09210526315789469
252,961.9385342789597,0.09210526315789469
253,961.9385342789597,0.08552631578947367
254,964.7360126083531,0.07894736842105265
255,964.7360126083531,0.08552631578947367
256,967.5334909377461,0.07894736842105265
257,970.3309692671396,0.07894736842105265
258,970.3309692671396,0.07236842105263153
259,973.1284475965326,0.07236842105263153
260,975.9259259259261,0.07236842105263153
261,975.9259259259261,0.07894736842105265
262,978.7234042553191,0.07894736842105265
263,981.5208825847126,0.07894736842105265
264,984.3183609141056,0.08552631578947367
265,984.3183609141056,0.07894736842105265
266,987.1158392434986,0.08552631578947367
267,987.1158392434986,0.09210526315789469
268,989.9133175728921,0.09210526315789469
269,992.7107959022851,0.09210526315789469
270,992.7107959022851,0.09868421052631582
271,995.5082742316786,0.10526315789473684
272,995.5082742316786,0.09868421052631582
273,998.3057525610716,0.125
274,998.3057525610716,0.11842105263157898
275,998.3057525610716,0.11184210526315785
276,998.3057525610716,0.10526315789473684
277,1001.103230890465,0.13157894736842102
278,1001.103230890465,0.125
279,1003.9007092198581,0.13157894736842102
280,1003.9007092198581,0.13815789473684215
281,1003.9007092198581,0.14473684210526316
282,1003.9007092198581,0.15131578947368418
283,1003.9007092198581,0.1578947368421053
284,1003.9007092198581,0.16447368421052633
285,1003.9007092198581,0.17105263157894735
286,1006.6981875492515,0.17763157894736847
287,1006.6981875492515,0.17105263157894735
288,1006.6981875492515,0.1842105263157895
289,1006.6981875492515,0.1907894736842105
290,1006.6981875492515,0.19736842105263153
291,1009.4956658786446,0.21052631578947367
292,1009.4956658786446,0.24342105263157898
293,1009.4956658786446,0.23684210526315785
294,1009.4956658786446,0.26315789473684215
295,1009.4956658786446,0.23026315789473684
296,1009.4956658786446,0.22368421052631582
297,1009.4956658786446,0.2171052631578947
298,1009.4956658786446,0.256578947368421
299,1009.4956658786446,0.25
300,1009.4956658786446,0.20394736842105265
301,1009.4956658786446,0.19736842105263153
302,1012.293144208038,0.26315789473684215
303,1012.293144208038,0.29605263157894735
304,1012.293144208038,0.2894736842105263
305,1012.293144208038,0.2763157894736842
306,1012.293144208038,0.26973684210526316
307,1012.293144208038,0.2828947368421053
308,1015.090622537431,0.3223684210526315
309,1015.090622537431,0.29605263157894735
310,1015.090622537431,0.3092105263157895
311,1015.090622537431,0.3157894736842105
312,1015.090622537431,0.3026315789473685
313,1017.8881008668241,0.3223684210526315
314,1017.8881008668241,0.32894736842105265
315,1020.6855791962175,0.3223684210526315
316,1020.6855791962175,0.32894736842105265
317,1023.4830575256105,0.29605263157894735
318,1023.4830575256105,0.3092105263157895
319,1023.4830575256105,0.3157894736842105
320,1023.4830575256105,0.3223684210526315
321,1023.4830575256105,0.2894736842105263
322,1023.4830575256105,0.2828947368421053
323,1023.4830575256105,0.3026315789473685
324,1026.280535855004,0.2763157894736842
325,1026.280535855004,0.26973684210526316
326,1026.280535855004,0.2828947368421053
327,1029.078014184397,0.26315789473684215
328,1029.078014184397,0.24342105263157898
329,1029.078014184397,0.26973684210526316
330,1029.078014184397,0.256578947368421
331,1029.078014184397,0.25
332,1031.8754925137905,0.24342105263157898
333,1031.8754925137905,0.23684210526315785
334,1034.6729708431835,0.23684210526315785
335,1034.6729708431835,0.23026315789473684
336,1034.6729708431835,0.22368421052631582
337,1037.470449172577,0.22368421052631582
338,1040.26792750197,0.22368421052631582
339,1040.26792750197,0.2171052631578947
340,1043.0654058313635,0.2171052631578947
341,1045.8628841607565,0.21052631578947367
342,1045.8628841607565,0.2171052631578947
343,1048.6603624901495,0.21052631578947367
344,1048.6603624901495,0.1907894736842105
345,1048.6603624901495,0.20394736842105265
346,1048.6603624901495,0.19736842105263153
347,1051.457840819543,0.1842105263157895
348,1051.457840819543,0.1907894736842105
349,1054.255319148936,0.1842105263157895
350,1057.0527974783295,0.1842105263157895
351,1057.0527974783295,0.17763157894736847
352,1059.8502758077225,0.17763157894736847
353,1062.647754137116,0.17763157894736847
354,1065.445232466509,0.17763157894736847
355,1068.2427107959024,0.17763157894736847
356,1071.0401891252955,0.17763157894736847
357,1073.837667454689,0.17763157894736847
358,1076.635145784082,0.17763157894736847
359,1079.432624113475,0.17763157894736847
360,1082.2301024428684,0.17763157894736847
361,1085.0275807722614,0.1842105263157895
362,1085.0275807722614,0.17763157894736847
363,1087.825059101655,0.1842105263157895
364,1090.622537431048,0.1842105263157895
365,1093.4200157604414,0.1842105263157895
366,1096.2174940898344,0.1907894736842105
367,1096.2174940898344,0.1842105263157895
368,1099.014972419228,0.1907894736842105
369,1101.812450748621,0.19736842105263153
370,1101.812450748621,0.1907894736842105
371,1104.6099290780144,0.19736842105263153
372,1107.4074074074074,0.19736842105263153
373,1107.4074074074074,0.20394736842105265
374,1110.2048857368004,0.20394736842105265
375,1110.2048857368004,0.21052631578947367
376,1113.0023640661939,0.21052631578947367
377,1115.799842395587,0.21052631578947367
378,1118.5973207249804,0.21052631578947367
379,1121.3947990543734,0.20394736842105265
380,1121.3947990543734,0.21052631578947367
381,1124.1922773837669,0.20394736842105265
382,1126.9897557131599,0.20394736842105265
383,1126.9897557131599,0.19736842105263153
384,1129.7872340425533,0.19736842105263153
385,1129.7872340425533,0.1907894736842105
386,1129.7872340425533,0.1842105263157895
387,1132.5847123719464,0.1842105263157895
388,1132.5847123719464,0.17763157894736847
389,1135.3821907013398,0.17763157894736847
390,1135.3821907013398,0.17105263157894735
391,1135.3821907013398,0.16447368421052633
392,1138.1796690307328,0.1578947368421053
393,1138.1796690307328,0.16447368421052633
394,1140.9771473601263,0.15131578947368418
395,1140.9771473601263,0.1578947368421053
396,1143.7746256895193,0.14473684210526316
397,1143.7746256895193,0.15131578947368418
398,1146.5721040189123,0.14473684210526316
399,1146.5721040189123,0.13815789473684215
400,1149.3695823483058,0.13815789473684215
401,1149.3695823483058,0.13157894736842102
402,1152.1670606776988,0.13815789473684215
403,1152.1670606776988,0.13157894736842102
404,1154.9645390070923,0.13815789473684215
405,1157.7620173364853,0.13815789473684215
406,1157.7620173364853,0.14473684210526316
407,1160.5594956658788,0.14473684210526316
408,1160.5594956658788,0.15131578947368418
409,1160.5594956658788,0.1578947368421053
410,1163.3569739952718,0.1578947368421053
411,1163.3569739952718,0.16447368421052633
412,1166.1544523246653,0.17105263157894735
413,1166.1544523246653,0.16447368421052633
414,1168.9519306540583,0.17105263157894735
415,1171.7494089834518,0.17105263157894735
416,1174.5468873128448,0.17105263157894735
417,1174.5468873128448,0.16447368421052633
418,1177.3443656422378,0.1578947368421053
419,1180.1418439716313,0.1578947368421053
420,1180.1418439716313,0.15131578947368418
421,1182.9393223010243,0.15131578947368418
422,1185.7368006304177,0.15131578947368418
423,1188.5342789598108,0.15131578947368418
424,1191.3317572892042,0.15131578947368418
425,1194.1292356185972,0.15131578947368418
426,1194.1292356185972,0.1578947368421053
427,1196.9267139479907,0.16447368421052633
428,1196.9267139479907,0.1578947368421053
429,1199.7241922773837,0.16447368421052633
430,1199.7241922773837,0.17105263157894735
431,1202.5216706067772,0.17763157894736847
432,1202.5216706067772,0.19736842105263153
433,1202.5216706067772,0.1907894736842105
434,1202.5216706067772,0.1842105263157895
435,1202.5216706067772,0.17105263157894735
436,1205.3191489361702,0.19736842105263153
437,1205.3191489361702,0.2171052631578947
438,1205.3191489361702,0.21052631578947367
439,1205.3191489361702,0.20394736842105265
440,1208.1166272655632,0.22368421052631582
441,1208.1166272655632,0.24342105263157898
442,1208.1166272655632,0.26315789473684215
443,1208.1166272655632,0.23684210526315785
444,1208.1166272655632,0.23026315789473684
445,1208.1166272655632,0.25
446,1208.1166272655632,0.2171052631578947
447,1208.1166272655632,0.256578947368421
448,1210.9141055949567,0.2828947368421053
449,1210.9141055949567,0.26973684210526316
450,1210.9141055949567,0.2763157894736842
451,1210.9141055949567,0.2894736842105263
452,1210.9141055949567,0.26315789473684215
453,1210.9141055949567,0.29605263157894735
454,1210.9141055949567,0.3026315789473685
455,1213.7115839243497,0.32894736842105265
456,1213.7115839243497,0.3092105263157895
457,1213.7115839243497,0.3223684210526315
458,1213.7115839243497,0.3157894736842105
459,1213.7115839243497,0.3026315789473685
460,1213.7115839243497,0.3421052631578947
461,1213.7115839243497,0.3355263157894737
462,1216.5090622537432,0.4276315789473685
463,1216.5090622537432,0.4342105263157895
464,1216.5090622537432,0.4407894736842105
465,1216.5090622537432,0.3421052631578947
