,wavenumbers,absorbance
0,452.797478329393,0.052631578947368474
1,455.5949566587865,0.052631578947368474
2,458.3924349881795,0.052631578947368474
3,461.189913317573,0.052631578947368474
4,463.987391646966,0.052631578947368474
5,466.78486997635946,0.052631578947368474
6,469.5823483057525,0.052631578947368474
7,472.37982663514595,0.052631578947368474
8,475.17730496453896,0.052631578947368474
9,477.97478329393243,0.052631578947368474
10,480.77226162332545,0.052631578947368474
11,483.56973995271846,0.052631578947368474
12,486.36721828211193,0.052631578947368474
13,489.16469661150495,0.052631578947368474
14,491.9621749408984,0.052631578947368474
15,494.75965327029144,0.052631578947368474
16,497.5571315996849,0.052631578947368474
17,500.3546099290779,0.052631578947368474
18,500.3546099290779,0.05921052631578949
19,503.1520882584714,0.05921052631578949
20,505.9495665878644,0.05921052631578949
21,505.9495665878644,0.052631578947368474
22,508.7470449172579,0.046052631578947345
23,508.7470449172579,0.052631578947368474
24,511.5445232466509,0.046052631578947345
25,514.3420015760439,0.046052631578947345
26,514.3420015760439,0.03947368421052633
27,514.3420015760439,0.03289473684210531
28,517.1394799054374,0.03289473684210531
29,519.9369582348304,0.02631578947368418
30,519.9369582348304,0.03289473684210531
31,519.9369582348304,0.019736842105263164
32,522.7344365642239,0.019736842105263164
33,525.5319148936169,0.013157894736842146
34,525.5319148936169,0.019736842105263164
35,528.3293932230104,0.013157894736842146
36,528.3293932230104,0.019736842105263164
37,531.1268715524034,0.019736842105263164
38,533.9243498817968,0.019736842105263164
39,536.7218282111899,0.019736842105263164
40,539.5193065405833,0.019736842105263164
41,542.3167848699763,0.019736842105263164
42,545.1142631993694,0.02631578947368418
43,545.1142631993694,0.019736842105263164
44,547.9117415287628,0.02631578947368418
45,550.7092198581558,0.02631578947368418
46,553.5066981875493,0.02631578947368418
47,556.3041765169423,0.02631578947368418
48,556.3041765169423,0.03289473684210531
49,559.1016548463358,0.03289473684210531
50,561.8991331757288,0.03289473684210531
51,561.8991331757288,0.03947368421052633
52,564.6966115051223,0.03947368421052633
53,564.6966115051223,0.046052631578947345
54,567.4940898345153,0.052631578947368474
55,567.4940898345153,0.046052631578947345
56,570.2915681639088,0.052631578947368474
57,570.2915681639088,0.05921052631578949
58,573.0890464933018,0.05921052631578949
59,573.0890464933018,0.06578947368421051
60,575.8865248226948,0.07236842105263153
61,575.8865248226948,0.06578947368421051
62,578.6840031520883,0.06578947368421051
63,581.4814814814813,0.05921052631578949
64,581.4814814814813,0.06578947368421051
65,584.2789598108748,0.052631578947368474
66,584.2789598108748,0.05921052631578949
67,587.0764381402678,0.052631578947368474
68,589.8739164696613,0.046052631578947345
69,589.8739164696613,0.052631578947368474
70,592.6713947990543,0.046052631578947345
71,595.4688731284477,0.046052631578947345
72,598.2663514578408,0.046052631578947345
73,601.0638297872342,0.046052631578947345
74,603.8613081166272,0.046052631578947345
75,606.6587864460207,0.052631578947368474
76,606.6587864460207,0.046052631578947345
77,609.4562647754137,0.052631578947368474
78,612.2537431048067,0.052631578947368474
79,615.0512214342002,0.052631578947368474
80,617.8486997635932,0.052631578947368474
81,620.6461780929867,0.052631578947368474
82,623.4436564223797,0.052631578947368474
83,623.4436564223797,0.046052631578947345
84,626.2411347517732,0.046052631578947345
85,629.0386130811662,0.046052631578947345
86,631.8360914105597,0.03947368421052633
87,631.8360914105597,0.046052631578947345
88,634.6335697399527,0.03947368421052633
89,637.4310480693462,0.03947368421052633
90,637.4310480693462,0.03289473684210531
91,640.2285263987392,0.03289473684210531
92,643.0260047281322,0.03289473684210531
93,645.8234830575257,0.03289473684210531
94,648.6209613869187,0.03289473684210531
95,651.4184397163122,0.03289473684210531
96,654.2159180457052,0.03289473684210531
97,657.0133963750986,0.03289473684210531
98,659.8108747044917,0.03289473684210531
99,662.6083530338851,0.03289473684210531
100,662.6083530338851,0.03947368421052633
101,665.4058313632781,0.03947368421052633
102,668.2033096926716,0.046052631578947345
103,668.2033096926716,0.03947368421052633
104,671.0007880220646,0.046052631578947345
105,671.0007880220646,0.052631578947368474
106,673.7982663514576,0.052631578947368474
107,676.5957446808511,0.06578947368421051
108,676.5957446808511,0.05921052631578949
109,676.5957446808511,0.052631578947368474
110,679.3932230102441,0.06578947368421051
111,682.1907013396376,0.06578947368421051
112,682.1907013396376,0.07236842105263153
113,682.1907013396376,0.07894736842105265
114,684.9881796690306,0.07894736842105265
115,687.7856579984241,0.08552631578947367
116,687.7856579984241,0.07894736842105265
117,690.5831363278171,0.08552631578947367
118,690.5831363278171,0.09210526315789469
119,693.3806146572106,0.09210526315789469
120,696.1780929866036,0.09210526315789469
121,698.9755713159971,0.09868421052631582
122,698.9755713159971,0.09210526315789469
123,701.7730496453901,0.09868421052631582
124,704.5705279747831,0.09868421052631582
125,707.3680063041766,0.09868421052631582
126,710.1654846335696,0.10526315789473684
127,710.1654846335696,0.09868421052631582
128,712.962962962963,0.10526315789473684
129,715.7604412923561,0.10526315789473684
130,718.5579196217495,0.10526315789473684
131,721.3553979511425,0.10526315789473684
132,724.152876280536,0.10526315789473684
133,726.950354609929,0.10526315789473684
134,729.7478329393225,0.10526315789473684
135,732.5453112687155,0.10526315789473684
136,735.3427895981085,0.10526315789473684
137,738.140267927502,0.10526315789473684
138,740.937746256895,0.10526315789473684
139,743.7352245862885,0.10526315789473684
140,746.5327029156815,0.10526315789473684
141,749.330181245075,0.10526315789473684
142,752.127659574468,0.10526315789473684
143,754.9251379038615,0.10526315789473684
144,757.7226162332545,0.09868421052631582
145,757.7226162332545,0.10526315789473684
146,760.520094562648,0.09868421052631582
147,763.317572892041,0.09210526315789469
148,763.317572892041,0.09868421052631582
149,766.115051221434,0.09210526315789469
150,768.9125295508275,0.09210526315789469
151,771.7100078802205,0.09210526315789469
152,771.7100078802205,0.08552631578947367
153,774.507486209614,0.08552631578947367
154,777.304964539007,0.08552631578947367
155,780.1024428684004,0.08552631578947367
156,782.8999211977934,0.08552631578947367
157,785.6973995271869,0.08552631578947367
158,788.4948778565799,0.07894736842105265
159,788.4948778565799,0.08552631578947367
160,791.2923561859734,0.08552631578947367
161,794.0898345153664,0.08552631578947367
162,796.8873128447594,0.08552631578947367
163,799.6847911741529,0.08552631578947367
164,802.4822695035459,0.09210526315789469
165,802.4822695035459,0.08552631578947367
166,805.2797478329394,0.09868421052631582
167,805.2797478329394,0.11842105263157898
168,805.2797478329394,0.10526315789473684
169,805.2797478329394,0.09210526315789469
170,805.2797478329394,0.11184210526315785
171,808.0772261623324,0.125
172,808.0772261623324,0.11842105263157898
173,808.0772261623324,0.13157894736842102
174,810.8747044917259,0.14473684210526316
175,810.8747044917259,0.13815789473684215
176,810.8747044917259,0.13157894736842102
177,813.6721828211189,0.14473684210526316
178,816.4696611505124,0.14473684210526316
179,816.4696611505124,0.13815789473684215
180,819.2671394799054,0.11842105263157898
181,819.2671394799054,0.11184210526315785
182,819.2671394799054,0.13815789473684215
183,819.2671394799054,0.125
184,819.2671394799054,0.13157894736842102
185,822.0646178092989,0.09210526315789469
186,822.0646178092989,0.09868421052631582
187,822.0646178092989,0.11184210526315785
188,822.0646178092989,0.10526315789473684
189,824.8620961386919,0.09210526315789469
190,824.8620961386919,0.07236842105263153
191,824.8620961386919,0.08552631578947367
192,824.8620961386919,0.07894736842105265
193,827.6595744680849,0.07236842105263153
194,827.6595744680849,0.06578947368421051
195,830.4570527974784,0.05921052631578949
196,830.4570527974784,0.06578947368421051
197,833.2545311268714,0.05921052631578949
198,836.0520094562648,0.05921052631578949
199,836.0520094562648,0.06578947368421051
200,838.8494877856579,0.07236842105263153
201,838.8494877856579,0.06578947368421051
202,841.6469661150513,0.06578947368421051
203,841.6469661150513,0.07236842105263153
204,841.6469661150513,0.05921052631578949
205,844.4444444444443,0.05921052631578949
206,844.4444444444443,0.052631578947368474
207,847.2419227738378,0.052631578947368474
208,847.2419227738378,0.046052631578947345
209,850.0394011032308,0.046052631578947345
210,852.8368794326243,0.046052631578947345
211,855.6343577620173,0.052631578947368474
212,855.6343577620173,0.046052631578947345
213,858.4318360914103,0.052631578947368474
214,861.2293144208038,0.052631578947368474
215,864.0267927501968,0.052631578947368474
216,866.8242710795903,0.052631578947368474
217,866.8242710795903,0.046052631578947345
218,869.6217494089833,0.046052631578947345
219,872.4192277383768,0.046052631578947345
220,872.4192277383768,0.03947368421052633
221,875.2167060677698,0.046052631578947345
222,875.2167060677698,0.03947368421052633
223,878.0141843971633,0.046052631578947345
224,878.0141843971633,0.052631578947368474
225,880.8116627265563,0.06578947368421051
226,880.8116627265563,0.05921052631578949
227,880.8116627265563,0.07236842105263153
228,880.8116627265563,0.052631578947368474
229,880.8116627265563,0.08552631578947367
230,880.8116627265563,0.07894736842105265
231,880.8116627265563,0.09868421052631582
232,880.8116627265563,0.09210526315789469
233,883.6091410559497,0.11184210526315785
234,883.6091410559497,0.10526315789473684
235,883.6091410559497,0.09868421052631582
236,886.4066193853428,0.11184210526315785
237,886.4066193853428,0.10526315789473684
238,889.2040977147362,0.08552631578947367
239,889.2040977147362,0.10526315789473684
240,889.2040977147362,0.09868421052631582
241,889.2040977147362,0.09210526315789469
242,892.0015760441293,0.07894736842105265
243,892.0015760441293,0.08552631578947367
244,892.0015760441293,0.05921052631578949
245,892.0015760441293,0.07236842105263153
246,892.0015760441293,0.06578947368421051
247,894.7990543735223,0.05921052631578949
248,894.7990543735223,0.052631578947368474
249,897.5965327029157,0.046052631578947345
250,897.5965327029157,0.052631578947368474
251,897.5965327029157,0.03947368421052633
252,900.3940110323088,0.03289473684210531
253,900.3940110323088,0.03947368421052633
254,903.1914893617022,0.03289473684210531
255,905.9889676910952,0.03289473684210531
256,908.7864460204887,0.03289473684210531
257,911.5839243498817,0.03289473684210531
258,914.3814026792752,0.03289473684210531
259,917.1788810086682,0.03289473684210531
260,919.9763593380617,0.03289473684210531
261,922.7738376674547,0.02631578947368418
262,922.7738376674547,0.03289473684210531
263,925.5713159968477,0.02631578947368418
264,928.3687943262412,0.02631578947368418
265,931.1662726556342,0.02631578947368418
266,933.9637509850277,0.02631578947368418
267,936.7612293144207,0.019736842105263164
268,936.7612293144207,0.02631578947368418
269,939.5587076438142,0.019736842105263164
270,942.3561859732072,0.019736842105263164
271,945.1536643026006,0.019736842105263164
272,947.9511426319937,0.019736842105263164
273,950.7486209613871,0.019736842105263164
274,953.5460992907801,0.019736842105263164
275,956.3435776201732,0.019736842105263164
276,959.1410559495666,0.019736842105263164
277,961.9385342789597,0.019736842105263164
278,964.7360126083531,0.019736842105263164
279,967.5334909377461,0.019736842105263164
280,967.5334909377461,0.02631578947368418
281,970.3309692671396,0.02631578947368418
282,973.1284475965326,0.02631578947368418
283,975.9259259259261,0.02631578947368418
284,978.7234042553191,0.02631578947368418
285,978.7234042553191,0.019736842105263164
286,981.5208825847126,0.019736842105263164
287,984.3183609141056,0.019736842105263164
288,987.1158392434986,0.019736842105263164
289,989.9133175728921,0.019736842105263164
290,992.7107959022851,0.019736842105263164
291,995.5082742316786,0.019736842105263164
292,998.3057525610716,0.019736842105263164
293,1001.103230890465,0.019736842105263164
294,1003.9007092198581,0.019736842105263164
295,1003.9007092198581,0.02631578947368418
296,1006.6981875492515,0.02631578947368418
297,1009.4956658786446,0.02631578947368418
298,1012.293144208038,0.02631578947368418
299,1012.293144208038,0.03289473684210531
300,1015.090622537431,0.03289473684210531
301,1017.8881008668241,0.03947368421052633
302,1017.8881008668241,0.03289473684210531
303,1020.6855791962175,0.03947368421052633
304,1020.6855791962175,0.046052631578947345
305,1023.4830575256105,0.046052631578947345
306,1026.280535855004,0.046052631578947345
307,1026.280535855004,0.052631578947368474
308,1029.078014184397,0.052631578947368474
309,1029.078014184397,0.046052631578947345
310,1031.8754925137905,0.046052631578947345
311,1034.6729708431835,0.046052631578947345
312,1037.470449172577,0.046052631578947345
313,1040.26792750197,0.052631578947368474
314,1040.26792750197,0.046052631578947345
315,1043.0654058313635,0.052631578947368474
316,1045.8628841607565,0.052631578947368474
317,1048.6603624901495,0.052631578947368474
318,1051.457840819543,0.052631578947368474
319,1054.255319148936,0.052631578947368474
320,1057.0527974783295,0.052631578947368474
321,1059.8502758077225,0.052631578947368474
322,1059.8502758077225,0.05921052631578949
323,1062.647754137116,0.05921052631578949
324,1065.445232466509,0.06578947368421051
325,1065.445232466509,0.05921052631578949
326,1068.2427107959024,0.06578947368421051
327,1071.0401891252955,0.06578947368421051
328,1073.837667454689,0.05921052631578949
329,1073.837667454689,0.06578947368421051
330,1076.635145784082,0.05921052631578949
331,1079.432624113475,0.05921052631578949
332,1079.432624113475,0.06578947368421051
333,1082.2301024428684,0.06578947368421051
334,1085.0275807722614,0.07236842105263153
335,1085.0275807722614,0.06578947368421051
336,1087.825059101655,0.07236842105263153
337,1090.622537431048,0.07236842105263153
338,1090.622537431048,0.07894736842105265
339,1093.4200157604414,0.07894736842105265
340,1093.4200157604414,0.08552631578947367
341,1096.2174940898344,0.08552631578947367
342,1096.2174940898344,0.09210526315789469
343,1099.014972419228,0.09210526315789469
344,1099.014972419228,0.09868421052631582
345,1101.812450748621,0.10526315789473684
346,1101.812450748621,0.09868421052631582
347,1104.6099290780144,0.11184210526315785
348,1104.6099290780144,0.11842105263157898
349,1104.6099290780144,0.10526315789473684
350,1107.4074074074074,0.11842105263157898
351,1107.4074074074074,0.125
352,1110.2048857368004,0.13157894736842102
353,1110.2048857368004,0.14473684210526316
354,1110.2048857368004,0.13815789473684215
355,1110.2048857368004,0.125
356,1113.0023640661939,0.14473684210526316
357,1113.0023640661939,0.1578947368421053
358,1113.0023640661939,0.15131578947368418
359,1115.799842395587,0.1578947368421053
360,1115.799842395587,0.1842105263157895
361,1115.799842395587,0.16447368421052633
362,1115.799842395587,0.17105263157894735
363,1115.799842395587,0.17763157894736847
364,1118.5973207249804,0.19736842105263153
365,1118.5973207249804,0.1907894736842105
366,1118.5973207249804,0.1842105263157895
367,1121.3947990543734,0.19736842105263153
368,1121.3947990543734,0.2171052631578947
369,1121.3947990543734,0.21052631578947367
370,1121.3947990543734,0.20394736842105265
371,1124.1922773837669,0.2171052631578947
372,1124.1922773837669,0.22368421052631582
373,1126.9897557131599,0.22368421052631582
374,1129.7872340425533,0.22368421052631582
375,1129.7872340425533,0.21052631578947367
376,1129.7872340425533,0.2171052631578947
377,1129.7872340425533,0.20394736842105265
378,1132.5847123719464,0.19736842105263153
379,1132.5847123719464,0.1907894736842105
380,1132.5847123719464,0.20394736842105265
381,1135.3821907013398,0.17763157894736847
382,1135.3821907013398,0.1842105263157895
383,1135.3821907013398,0.1907894736842105
384,1138.1796690307328,0.17763157894736847
385,1140.9771473601263,0.17105263157894735
386,1140.9771473601263,0.17763157894736847
387,1143.7746256895193,0.17105263157894735
388,1143.7746256895193,0.1578947368421053
389,1143.7746256895193,0.16447368421052633
390,1146.5721040189123,0.14473684210526316
391,1146.5721040189123,0.15131578947368418
392,1146.5721040189123,0.1578947368421053
393,1149.3695823483058,0.13815789473684215
394,1149.3695823483058,0.14473684210526316
395,1149.3695823483058,0.13157894736842102
396,1152.1670606776988,0.11842105263157898
397,1152.1670606776988,0.125
398,1154.9645390070923,0.11842105263157898
399,1154.9645390070923,0.10526315789473684
400,1154.9645390070923,0.11184210526315785
401,1157.7620173364853,0.09868421052631582
402,1157.7620173364853,0.10526315789473684
403,1160.5594956658788,0.08552631578947367
404,1160.5594956658788,0.09868421052631582
405,1160.5594956658788,0.09210526315789469
406,1163.3569739952718,0.08552631578947367
407,1163.3569739952718,0.07894736842105265
408,1166.1544523246653,0.07236842105263153
409,1166.1544523246653,0.07894736842105265
410,1168.9519306540583,0.07236842105263153
411,1171.7494089834518,0.07236842105263153
412,1171.7494089834518,0.07894736842105265
413,1174.5468873128448,0.07894736842105265
414,1177.3443656422378,0.07894736842105265
415,1177.3443656422378,0.08552631578947367
416,1180.1418439716313,0.08552631578947367
417,1182.9393223010243,0.07894736842105265
418,1182.9393223010243,0.08552631578947367
419,1185.7368006304177,0.07894736842105265
420,1185.7368006304177,0.07236842105263153
421,1188.5342789598108,0.07236842105263153
422,1191.3317572892042,0.06578947368421051
423,1191.3317572892042,0.07236842105263153
424,1194.1292356185972,0.07236842105263153
425,1196.9267139479907,0.07236842105263153
426,1199.7241922773837,0.07236842105263153
427,1199.7241922773837,0.07894736842105265
428,1202.5216706067772,0.07894736842105265
429,1205.3191489361702,0.07894736842105265
430,1208.1166272655632,0.07894736842105265
431,1210.9141055949567,0.07894736842105265
432,1213.7115839243497,0.07894736842105265
433,1216.5090622537432,0.07894736842105265
434,1219.3065405831362,0.07894736842105265
435,1219.3065405831362,0.07236842105263153
436,1222.1040189125297,0.07894736842105265
437,1222.1040189125297,0.07236842105263153
438,1224.9014972419227,0.07894736842105265
439,1227.6989755713162,0.09210526315789469
440,1227.6989755713162,0.07894736842105265
441,1227.6989755713162,0.08552631578947367
442,1230.4964539007092,0.09210526315789469
443,1230.4964539007092,0.09868421052631582
444,1233.2939322301027,0.10526315789473684
445,1233.2939322301027,0.09868421052631582
446,1233.2939322301027,0.11184210526315785
447,1233.2939322301027,0.11842105263157898
448,1236.0914105594957,0.11842105263157898
449,1238.8888888888887,0.11842105263157898
450,1241.6863672182822,0.11842105263157898
451,1244.4838455476752,0.125
452,1244.4838455476752,0.11842105263157898
453,1247.2813238770686,0.15131578947368418
454,1247.2813238770686,0.125
455,1247.2813238770686,0.14473684210526316
456,1247.2813238770686,0.13815789473684215
457,1247.2813238770686,0.13157894736842102
458,1250.0788022064617,0.1578947368421053
459,1250.0788022064617,0.15131578947368418
460,1252.8762805358551,0.1578947368421053
461,1252.8762805358551,0.16447368421052633
462,1255.6737588652481,0.16447368421052633
