,wavenumbers,absorbance
0,452.797478329393,0.02631578947368418
1,455.5949566587865,0.02631578947368418
2,458.3924349881795,0.02631578947368418
3,461.189913317573,0.02631578947368418
4,463.987391646966,0.02631578947368418
5,466.78486997635946,0.02631578947368418
6,469.5823483057525,0.02631578947368418
7,472.37982663514595,0.02631578947368418
8,475.17730496453896,0.02631578947368418
9,477.97478329393243,0.02631578947368418
10,480.77226162332545,0.02631578947368418
11,483.56973995271846,0.02631578947368418
12,486.36721828211193,0.02631578947368418
13,489.16469661150495,0.019736842105263164
14,489.16469661150495,0.02631578947368418
15,491.9621749408984,0.019736842105263164
16,494.75965327029144,0.019736842105263164
17,497.5571315996849,0.019736842105263164
18,500.3546099290779,0.019736842105263164
19,503.1520882584714,0.019736842105263164
20,505.9495665878644,0.019736842105263164
21,508.7470449172579,0.019736842105263164
22,511.5445232466509,0.019736842105263164
23,514.3420015760439,0.019736842105263164
24,517.1394799054374,0.019736842105263164
25,519.9369582348304,0.019736842105263164
26,519.9369582348304,0.02631578947368418
27,522.7344365642239,0.02631578947368418
28,525.5319148936169,0.02631578947368418
29,528.3293932230104,0.02631578947368418
30,531.1268715524034,0.02631578947368418
31,533.9243498817968,0.02631578947368418
32,533.9243498817968,0.03289473684210531
33,536.7218282111899,0.02631578947368418
34,536.7218282111899,0.03289473684210531
35,539.5193065405833,0.02631578947368418
36,542.3167848699763,0.02631578947368418
37,545.1142631993694,0.02631578947368418
38,547.9117415287628,0.02631578947368418
39,550.7092198581558,0.02631578947368418
40,553.5066981875493,0.03289473684210531
41,553.5066981875493,0.02631578947368418
42,556.3041765169423,0.03289473684210531
43,559.1016548463358,0.03289473684210531
44,559.1016548463358,0.02631578947368418
45,561.8991331757288,0.02631578947368418
46,564.6966115051223,0.02631578947368418
47,567.4940898345153,0.02631578947368418
48,570.2915681639088,0.02631578947368418
49,573.0890464933018,0.02631578947368418
50,575.8865248226948,0.02631578947368418
51,575.8865248226948,0.019736842105263164
52,578.6840031520883,0.019736842105263164
53,581.4814814814813,0.019736842105263164
54,584.2789598108748,0.019736842105263164
55,587.0764381402678,0.019736842105263164
56,589.8739164696613,0.019736842105263164
57,592.6713947990543,0.02631578947368418
58,592.6713947990543,0.019736842105263164
59,598.2663514578408,0.02631578947368418
60,601.0638297872342,0.02631578947368418
61,603.8613081166272,0.02631578947368418
62,606.6587864460207,0.02631578947368418
63,606.6587864460207,0.019736842105263164
64,609.4562647754137,0.019736842105263164
65,612.2537431048067,0.019736842105263164
66,615.0512214342002,0.019736842105263164
67,617.8486997635932,0.019736842105263164
68,617.8486997635932,0.02631578947368418
69,620.6461780929867,0.02631578947368418
70,620.6461780929867,0.03289473684210531
71,623.4436564223797,0.03289473684210531
72,626.2411347517732,0.03289473684210531
73,629.0386130811662,0.03289473684210531
74,631.8360914105597,0.02631578947368418
75,631.8360914105597,0.03289473684210531
76,634.6335697399527,0.02631578947368418
77,637.4310480693462,0.019736842105263164
78,637.4310480693462,0.02631578947368418
79,640.2285263987392,0.019736842105263164
80,640.2285263987392,0.02631578947368418
81,643.0260047281322,0.019736842105263164
82,643.0260047281322,0.02631578947368418
83,645.8234830575257,0.019736842105263164
84,645.8234830575257,0.02631578947368418
85,648.6209613869187,0.02631578947368418
86,651.4184397163122,0.02631578947368418
87,654.2159180457052,0.02631578947368418
88,657.0133963750986,0.02631578947368418
89,659.8108747044917,0.02631578947368418
90,662.6083530338851,0.02631578947368418
91,665.4058313632781,0.02631578947368418
92,668.2033096926716,0.02631578947368418
93,668.2033096926716,0.019736842105263164
94,671.0007880220646,0.019736842105263164
95,673.7982663514576,0.019736842105263164
96,676.5957446808511,0.019736842105263164
97,679.3932230102441,0.019736842105263164
98,682.1907013396376,0.019736842105263164
99,684.9881796690306,0.019736842105263164
100,687.7856579984241,0.019736842105263164
101,690.5831363278171,0.019736842105263164
102,693.3806146572106,0.02631578947368418
103,693.3806146572106,0.019736842105263164
104,696.1780929866036,0.02631578947368418
105,698.9755713159971,0.03289473684210531
106,698.9755713159971,0.02631578947368418
107,701.7730496453901,0.03289473684210531
108,704.5705279747831,0.03289473684210531
109,707.3680063041766,0.02631578947368418
110,707.3680063041766,0.03289473684210531
111,710.1654846335696,0.02631578947368418
112,710.1654846335696,0.03289473684210531
113,712.962962962963,0.03289473684210531
114,712.962962962963,0.03947368421052633
115,715.7604412923561,0.046052631578947345
116,715.7604412923561,0.03947368421052633
117,718.5579196217495,0.046052631578947345
118,718.5579196217495,0.03947368421052633
119,721.3553979511425,0.03947368421052633
120,724.152876280536,0.03947368421052633
121,724.152876280536,0.02631578947368418
122,724.152876280536,0.03289473684210531
123,726.950354609929,0.02631578947368418
124,729.7478329393225,0.02631578947368418
125,732.5453112687155,0.02631578947368418
126,735.3427895981085,0.02631578947368418
127,738.140267927502,0.02631578947368418
128,738.140267927502,0.03289473684210531
129,740.937746256895,0.03289473684210531
130,743.7352245862885,0.03289473684210531
131,746.5327029156815,0.03289473684210531
132,746.5327029156815,0.03947368421052633
133,749.330181245075,0.03289473684210531
134,749.330181245075,0.03947368421052633
135,752.127659574468,0.03289473684210531
136,754.9251379038615,0.03289473684210531
137,757.7226162332545,0.03289473684210531
138,760.520094562648,0.03289473684210531
139,763.317572892041,0.03289473684210531
140,763.317572892041,0.02631578947368418
141,766.115051221434,0.02631578947368418
142,768.9125295508275,0.02631578947368418
143,771.7100078802205,0.02631578947368418
144,774.507486209614,0.02631578947368418
145,777.304964539007,0.02631578947368418
146,780.1024428684004,0.02631578947368418
147,782.8999211977934,0.02631578947368418
148,785.6973995271869,0.03289473684210531
149,785.6973995271869,0.02631578947368418
150,788.4948778565799,0.03289473684210531
151,791.2923561859734,0.03289473684210531
152,794.0898345153664,0.03289473684210531
153,796.8873128447594,0.02631578947368418
154,796.8873128447594,0.03289473684210531
155,799.6847911741529,0.03289473684210531
156,799.6847911741529,0.02631578947368418
157,802.4822695035459,0.03289473684210531
158,805.2797478329394,0.03289473684210531
159,808.0772261623324,0.03289473684210531
160,808.0772261623324,0.03947368421052633
161,810.8747044917259,0.046052631578947345
162,810.8747044917259,0.03947368421052633
163,810.8747044917259,0.052631578947368474
164,813.6721828211189,0.07236842105263153
165,813.6721828211189,0.05921052631578949
166,813.6721828211189,0.06578947368421051
167,813.6721828211189,0.052631578947368474
168,816.4696611505124,0.07236842105263153
169,816.4696611505124,0.07894736842105265
170,816.4696611505124,0.08552631578947367
171,819.2671394799054,0.06578947368421051
172,819.2671394799054,0.08552631578947367
173,819.2671394799054,0.07894736842105265
174,819.2671394799054,0.07236842105263153
175,822.0646178092989,0.052631578947368474
176,822.0646178092989,0.05921052631578949
177,822.0646178092989,0.06578947368421051
178,824.8620961386919,0.046052631578947345
179,824.8620961386919,0.052631578947368474
180,827.6595744680849,0.046052631578947345
181,830.4570527974784,0.046052631578947345
182,830.4570527974784,0.03947368421052633
183,833.2545311268714,0.03947368421052633
184,836.0520094562648,0.03289473684210531
185,836.0520094562648,0.03947368421052633
186,838.8494877856579,0.03289473684210531
187,841.6469661150513,0.03289473684210531
188,844.4444444444443,0.03289473684210531
189,847.2419227738378,0.03947368421052633
190,847.2419227738378,0.03289473684210531
191,850.0394011032308,0.046052631578947345
192,850.0394011032308,0.03947368421052633
193,852.8368794326243,0.046052631578947345
194,852.8368794326243,0.052631578947368474
195,855.6343577620173,0.052631578947368474
196,858.4318360914103,0.052631578947368474
197,861.2293144208038,0.052631578947368474
198,864.0267927501968,0.046052631578947345
199,864.0267927501968,0.052631578947368474
200,866.8242710795903,0.052631578947368474
201,866.8242710795903,0.046052631578947345
202,869.6217494089833,0.052631578947368474
203,869.6217494089833,0.05921052631578949
204,872.4192277383768,0.05921052631578949
205,875.2167060677698,0.07236842105263153
206,875.2167060677698,0.06578947368421051
207,875.2167060677698,0.05921052631578949
208,878.0141843971633,0.07894736842105265
209,878.0141843971633,0.08552631578947367
210,878.0141843971633,0.07236842105263153
211,880.8116627265563,0.07894736842105265
212,880.8116627265563,0.08552631578947367
213,883.6091410559497,0.07894736842105265
214,886.4066193853428,0.07894736842105265
215,886.4066193853428,0.07236842105263153
216,889.2040977147362,0.07236842105263153
217,892.0015760441293,0.07236842105263153
218,892.0015760441293,0.06578947368421051
219,894.7990543735223,0.06578947368421051
220,897.5965327029157,0.06578947368421051
221,897.5965327029157,0.07236842105263153
222,900.3940110323088,0.07236842105263153
223,903.1914893617022,0.07894736842105265
224,903.1914893617022,0.07236842105263153
225,905.9889676910952,0.07236842105263153
226,905.9889676910952,0.07894736842105265
227,908.7864460204887,0.06578947368421051
228,908.7864460204887,0.07236842105263153
229,911.5839243498817,0.05921052631578949
230,911.5839243498817,0.06578947368421051
231,914.3814026792752,0.05921052631578949
232,917.1788810086682,0.05921052631578949
233,919.9763593380617,0.05921052631578949
234,922.7738376674547,0.05921052631578949
235,922.7738376674547,0.052631578947368474
236,925.5713159968477,0.052631578947368474
237,928.3687943262412,0.052631578947368474
238,931.1662726556342,0.052631578947368474
239,933.9637509850277,0.052631578947368474
240,936.7612293144207,0.052631578947368474
241,939.5587076438142,0.052631578947368474
242,942.3561859732072,0.052631578947368474
243,942.3561859732072,0.05921052631578949
244,945.1536643026006,0.05921052631578949
245,947.9511426319937,0.052631578947368474
246,947.9511426319937,0.05921052631578949
247,950.7486209613871,0.052631578947368474
248,953.5460992907801,0.052631578947368474
249,953.5460992907801,0.05921052631578949
250,956.3435776201732,0.05921052631578949
251,959.1410559495666,0.05921052631578949
252,959.1410559495666,0.06578947368421051
253,961.9385342789597,0.06578947368421051
254,961.9385342789597,0.07236842105263153
255,964.7360126083531,0.07236842105263153
256,964.7360126083531,0.07894736842105265
257,967.5334909377461,0.07894736842105265
258,970.3309692671396,0.07894736842105265
259,973.1284475965326,0.08552631578947367
260,973.1284475965326,0.07894736842105265
261,975.9259259259261,0.08552631578947367
262,978.7234042553191,0.08552631578947367
263,978.7234042553191,0.07894736842105265
264,981.5208825847126,0.07894736842105265
265,984.3183609141056,0.07894736842105265
266,987.1158392434986,0.08552631578947367
267,987.1158392434986,0.07894736842105265
268,989.9133175728921,0.09210526315789469
269,989.9133175728921,0.08552631578947367
270,992.7107959022851,0.09210526315789469
271,995.5082742316786,0.09210526315789469
272,998.3057525610716,0.09868421052631582
273,998.3057525610716,0.09210526315789469
274,1001.103230890465,0.09868421052631582
275,1003.9007092198581,0.09868421052631582
276,1006.6981875492515,0.09868421052631582
277,1006.6981875492515,0.10526315789473684
278,1009.4956658786446,0.10526315789473684
279,1012.293144208038,0.10526315789473684
280,1015.090622537431,0.10526315789473684
281,1015.090622537431,0.09868421052631582
282,1017.8881008668241,0.10526315789473684
283,1017.8881008668241,0.11184210526315785
284,1017.8881008668241,0.09868421052631582
285,1020.6855791962175,0.11184210526315785
286,1023.4830575256105,0.125
287,1023.4830575256105,0.11842105263157898
288,1023.4830575256105,0.11184210526315785
289,1026.280535855004,0.125
290,1029.078014184397,0.14473684210526316
291,1029.078014184397,0.13157894736842102
292,1029.078014184397,0.13815789473684215
293,1029.078014184397,0.125
294,1029.078014184397,0.15131578947368418
295,1031.8754925137905,0.15131578947368418
296,1031.8754925137905,0.1578947368421053
297,1034.6729708431835,0.15131578947368418
298,1034.6729708431835,0.1578947368421053
299,1037.470449172577,0.14473684210526316
300,1037.470449172577,0.15131578947368418
301,1037.470449172577,0.13815789473684215
302,1040.26792750197,0.13157894736842102
303,1040.26792750197,0.13815789473684215
304,1043.0654058313635,0.13157894736842102
305,1045.8628841607565,0.13157894736842102
306,1045.8628841607565,0.13815789473684215
307,1048.6603624901495,0.14473684210526316
308,1048.6603624901495,0.13815789473684215
309,1051.457840819543,0.15131578947368418
310,1051.457840819543,0.14473684210526316
311,1054.255319148936,0.1578947368421053
312,1054.255319148936,0.16447368421052633
313,1054.255319148936,0.15131578947368418
314,1057.0527974783295,0.16447368421052633
315,1057.0527974783295,0.1578947368421053
316,1059.8502758077225,0.15131578947368418
317,1059.8502758077225,0.14473684210526316
318,1059.8502758077225,0.1578947368421053
319,1062.647754137116,0.13815789473684215
320,1062.647754137116,0.14473684210526316
321,1065.445232466509,0.13815789473684215
322,1065.445232466509,0.13157894736842102
323,1068.2427107959024,0.13157894736842102
324,1071.0401891252955,0.13815789473684215
325,1071.0401891252955,0.13157894736842102
326,1073.837667454689,0.13815789473684215
327,1073.837667454689,0.13157894736842102
328,1076.635145784082,0.13157894736842102
329,1076.635145784082,0.13815789473684215
330,1079.432624113475,0.13157894736842102
331,1079.432624113475,0.13815789473684215
332,1082.2301024428684,0.13157894736842102
333,1082.2301024428684,0.13815789473684215
334,1085.0275807722614,0.13815789473684215
335,1085.0275807722614,0.14473684210526316
336,1087.825059101655,0.15131578947368418
337,1087.825059101655,0.1578947368421053
338,1087.825059101655,0.14473684210526316
339,1090.622537431048,0.16447368421052633
340,1090.622537431048,0.1842105263157895
341,1090.622537431048,0.1578947368421053
342,1090.622537431048,0.17105263157894735
343,1090.622537431048,0.17763157894736847
344,1093.4200157604414,0.19736842105263153
345,1093.4200157604414,0.1907894736842105
346,1093.4200157604414,0.1842105263157895
347,1093.4200157604414,0.20394736842105265
348,1096.2174940898344,0.23026315789473684
349,1096.2174940898344,0.22368421052631582
350,1096.2174940898344,0.21052631578947367
351,1096.2174940898344,0.23684210526315785
352,1096.2174940898344,0.24342105263157898
353,1096.2174940898344,0.20394736842105265
354,1096.2174940898344,0.25
355,1096.2174940898344,0.2171052631578947
356,1099.014972419228,0.25
357,1099.014972419228,0.26973684210526316
358,1099.014972419228,0.26315789473684215
359,1099.014972419228,0.256578947368421
360,1101.812450748621,0.26973684210526316
361,1104.6099290780144,0.26315789473684215
362,1104.6099290780144,0.25
363,1104.6099290780144,0.26973684210526316
364,1104.6099290780144,0.24342105263157898
365,1104.6099290780144,0.256578947368421
366,1107.4074074074074,0.22368421052631582
367,1107.4074074074074,0.23026315789473684
368,1107.4074074074074,0.24342105263157898
369,1107.4074074074074,0.23684210526315785
370,1110.2048857368004,0.21052631578947367
371,1110.2048857368004,0.22368421052631582
372,1110.2048857368004,0.2171052631578947
373,1113.0023640661939,0.2171052631578947
374,1113.0023640661939,0.21052631578947367
375,1115.799842395587,0.23684210526315785
376,1115.799842395587,0.24342105263157898
377,1115.799842395587,0.23026315789473684
378,1115.799842395587,0.25
379,1115.799842395587,0.22368421052631582
380,1115.799842395587,0.2171052631578947
381,1118.5973207249804,0.26973684210526316
382,1118.5973207249804,0.25
383,1118.5973207249804,0.256578947368421
384,1118.5973207249804,0.26315789473684215
385,1121.3947990543734,0.26973684210526316
386,1121.3947990543734,0.26315789473684215
387,1124.1922773837669,0.26315789473684215
388,1124.1922773837669,0.256578947368421
389,1126.9897557131599,0.25
390,1126.9897557131599,0.24342105263157898
391,1126.9897557131599,0.256578947368421
392,1129.7872340425533,0.23684210526315785
393,1129.7872340425533,0.24342105263157898
394,1129.7872340425533,0.23026315789473684
395,1129.7872340425533,0.22368421052631582
396,1132.5847123719464,0.22368421052631582
397,1132.5847123719464,0.2171052631578947
398,1135.3821907013398,0.21052631578947367
399,1135.3821907013398,0.2171052631578947
400,1138.1796690307328,0.2171052631578947
401,1140.9771473601263,0.21052631578947367
402,1140.9771473601263,0.2171052631578947
403,1143.7746256895193,0.21052631578947367
404,1143.7746256895193,0.20394736842105265
405,1146.5721040189123,0.17763157894736847
406,1146.5721040189123,0.1842105263157895
407,1146.5721040189123,0.19736842105263153
408,1146.5721040189123,0.20394736842105265
409,1146.5721040189123,0.1907894736842105
410,1149.3695823483058,0.17763157894736847
411,1149.3695823483058,0.17105263157894735
412,1152.1670606776988,0.17105263157894735
413,1152.1670606776988,0.1578947368421053
414,1152.1670606776988,0.16447368421052633
415,1154.9645390070923,0.1578947368421053
416,1157.7620173364853,0.1578947368421053
417,1157.7620173364853,0.16447368421052633
418,1160.5594956658788,0.17105263157894735
419,1160.5594956658788,0.1842105263157895
420,1160.5594956658788,0.19736842105263153
421,1160.5594956658788,0.17763157894736847
422,1160.5594956658788,0.1907894736842105
423,1160.5594956658788,0.16447368421052633
424,1163.3569739952718,0.19736842105263153
425,1163.3569739952718,0.20394736842105265
426,1163.3569739952718,0.21052631578947367
427,1166.1544523246653,0.2171052631578947
428,1166.1544523246653,0.21052631578947367
429,1166.1544523246653,0.22368421052631582
430,1166.1544523246653,0.23026315789473684
431,1168.9519306540583,0.23026315789473684
432,1171.7494089834518,0.22368421052631582
433,1171.7494089834518,0.23026315789473684
434,1171.7494089834518,0.2171052631578947
435,1174.5468873128448,0.2171052631578947
436,1174.5468873128448,0.21052631578947367
437,1177.3443656422378,0.1907894736842105
438,1177.3443656422378,0.21052631578947367
439,1177.3443656422378,0.20394736842105265
440,1177.3443656422378,0.19736842105263153
441,1180.1418439716313,0.17763157894736847
442,1180.1418439716313,0.1842105263157895
443,1180.1418439716313,0.1907894736842105
444,1182.9393223010243,0.17105263157894735
445,1182.9393223010243,0.16447368421052633
446,1182.9393223010243,0.17763157894736847
447,1185.7368006304177,0.1578947368421053
448,1185.7368006304177,0.15131578947368418
449,1185.7368006304177,0.16447368421052633
450,1188.5342789598108,0.15131578947368418
451,1188.5342789598108,0.14473684210526316
452,1191.3317572892042,0.125
453,1191.3317572892042,0.13815789473684215
454,1191.3317572892042,0.11842105263157898
455,1191.3317572892042,0.14473684210526316
456,1191.3317572892042,0.13157894736842102
457,1194.1292356185972,0.11842105263157898
458,1194.1292356185972,0.11184210526315785
459,1196.9267139479907,0.11184210526315785
460,1199.7241922773837,0.11184210526315785
461,1202.5216706067772,0.11842105263157898
462,1202.5216706067772,0.13157894736842102
463,1202.5216706067772,0.125
464,1202.5216706067772,0.11184210526315785
465,1205.3191489361702,0.13815789473684215
466,1205.3191489361702,0.13157894736842102
