,wavenumbers,absorbance
0,452.797478329393,0.019736842105263164
1,455.5949566587865,0.019736842105263164
2,458.3924349881795,0.019736842105263164
3,461.189913317573,0.019736842105263164
4,463.987391646966,0.019736842105263164
5,466.78486997635946,0.019736842105263164
6,469.5823483057525,0.019736842105263164
7,472.37982663514595,0.019736842105263164
8,475.17730496453896,0.019736842105263164
9,477.97478329393243,0.019736842105263164
10,480.77226162332545,0.019736842105263164
11,483.56973995271846,0.019736842105263164
12,486.36721828211193,0.019736842105263164
13,486.36721828211193,0.02631578947368418
14,489.16469661150495,0.02631578947368418
15,491.9621749408984,0.019736842105263164
16,491.9621749408984,0.02631578947368418
17,494.75965327029144,0.019736842105263164
18,497.5571315996849,0.019736842105263164
19,500.3546099290779,0.019736842105263164
20,503.1520882584714,0.019736842105263164
21,505.9495665878644,0.019736842105263164
22,508.7470449172579,0.019736842105263164
23,511.5445232466509,0.019736842105263164
24,514.3420015760439,0.019736842105263164
25,514.3420015760439,0.02631578947368418
26,517.1394799054374,0.02631578947368418
27,519.9369582348304,0.02631578947368418
28,522.7344365642239,0.02631578947368418
29,525.5319148936169,0.02631578947368418
30,525.5319148936169,0.03289473684210531
31,528.3293932230104,0.03289473684210531
32,531.1268715524034,0.03289473684210531
33,533.9243498817968,0.03289473684210531
34,533.9243498817968,0.03947368421052633
35,536.7218282111899,0.03947368421052633
36,539.5193065405833,0.046052631578947345
37,539.5193065405833,0.03947368421052633
38,542.3167848699763,0.046052631578947345
39,542.3167848699763,0.052631578947368474
40,545.1142631993694,0.052631578947368474
41,545.1142631993694,0.05921052631578949
42,547.9117415287628,0.06578947368421051
43,547.9117415287628,0.05921052631578949
44,550.7092198581558,0.07236842105263153
45,550.7092198581558,0.06578947368421051
46,553.5066981875493,0.07236842105263153
47,553.5066981875493,0.07894736842105265
48,556.3041765169423,0.09868421052631582
49,556.3041765169423,0.09210526315789469
50,556.3041765169423,0.07894736842105265
51,556.3041765169423,0.08552631578947367
52,559.1016548463358,0.10526315789473684
53,559.1016548463358,0.09868421052631582
54,559.1016548463358,0.11184210526315785
55,561.8991331757288,0.11842105263157898
56,561.8991331757288,0.11184210526315785
57,561.8991331757288,0.125
58,564.6966115051223,0.1578947368421053
59,564.6966115051223,0.15131578947368418
60,564.6966115051223,0.14473684210526316
61,564.6966115051223,0.13815789473684215
62,564.6966115051223,0.13157894736842102
63,564.6966115051223,0.125
64,564.6966115051223,0.16447368421052633
65,567.4940898345153,0.16447368421052633
66,567.4940898345153,0.1842105263157895
67,567.4940898345153,0.17105263157894735
68,567.4940898345153,0.17763157894736847
69,570.2915681639088,0.23026315789473684
70,570.2915681639088,0.22368421052631582
71,570.2915681639088,0.1842105263157895
72,570.2915681639088,0.19736842105263153
73,570.2915681639088,0.2171052631578947
74,570.2915681639088,0.1907894736842105
75,570.2915681639088,0.20394736842105265
76,570.2915681639088,0.21052631578947367
77,573.0890464933018,0.23684210526315785
78,573.0890464933018,0.256578947368421
79,573.0890464933018,0.25
80,573.0890464933018,0.23026315789473684
81,573.0890464933018,0.24342105263157898
82,575.8865248226948,0.256578947368421
83,575.8865248226948,0.2828947368421053
84,575.8865248226948,0.2894736842105263
85,575.8865248226948,0.29605263157894735
86,575.8865248226948,0.26973684210526316
87,575.8865248226948,0.2763157894736842
88,575.8865248226948,0.3092105263157895
89,575.8865248226948,0.26315789473684215
90,575.8865248226948,0.3026315789473685
91,578.6840031520883,0.32894736842105265
92,578.6840031520883,0.3223684210526315
93,578.6840031520883,0.3092105263157895
94,578.6840031520883,0.3157894736842105
95,578.6840031520883,0.3355263157894737
96,581.4814814814813,0.3355263157894737
97,581.4814814814813,0.3486842105263158
98,581.4814814814813,0.35526315789473684
99,581.4814814814813,0.36184210526315785
100,581.4814814814813,0.3421052631578947
101,581.4814814814813,0.381578947368421
102,581.4814814814813,0.368421052631579
103,581.4814814814813,0.4078947368421053
104,581.4814814814813,0.375
105,581.4814814814813,0.42105263157894735
106,581.4814814814813,0.4144736842105263
107,581.4814814814813,0.4013157894736842
108,581.4814814814813,0.39473684210526316
109,581.4814814814813,0.38815789473684215
110,584.2789598108748,0.42105263157894735
111,584.2789598108748,0.4078947368421053
112,584.2789598108748,0.4144736842105263
113,587.0764381402678,0.4013157894736842
114,587.0764381402678,0.38815789473684215
115,587.0764381402678,0.381578947368421
116,587.0764381402678,0.4078947368421053
117,587.0764381402678,0.36184210526315785
118,587.0764381402678,0.35526315789473684
119,587.0764381402678,0.375
120,587.0764381402678,0.3486842105263158
121,587.0764381402678,0.368421052631579
122,587.0764381402678,0.39473684210526316
123,589.8739164696613,0.32894736842105265
124,589.8739164696613,0.23684210526315785
125,589.8739164696613,0.24342105263157898
126,589.8739164696613,0.25
127,589.8739164696613,0.256578947368421
128,589.8739164696613,0.26973684210526316
129,589.8739164696613,0.2763157894736842
130,589.8739164696613,0.2828947368421053
131,589.8739164696613,0.2894736842105263
132,589.8739164696613,0.29605263157894735
133,589.8739164696613,0.3026315789473685
134,589.8739164696613,0.26315789473684215
135,589.8739164696613,0.3355263157894737
136,589.8739164696613,0.3486842105263158
137,589.8739164696613,0.3157894736842105
138,589.8739164696613,0.3421052631578947
139,589.8739164696613,0.3092105263157895
140,589.8739164696613,0.3223684210526315
141,592.6713947990543,0.23026315789473684
142,592.6713947990543,0.22368421052631582
143,592.6713947990543,0.2171052631578947
144,592.6713947990543,0.23684210526315785
145,592.6713947990543,0.20394736842105265
146,592.6713947990543,0.19736842105263153
147,592.6713947990543,0.21052631578947367
148,595.4688731284477,0.19736842105263153
149,595.4688731284477,0.1907894736842105
150,595.4688731284477,0.17105263157894735
151,595.4688731284477,0.16447368421052633
152,595.4688731284477,0.17763157894736847
153,595.4688731284477,0.14473684210526316
154,595.4688731284477,0.1578947368421053
155,595.4688731284477,0.15131578947368418
156,595.4688731284477,0.125
157,595.4688731284477,0.13157894736842102
158,595.4688731284477,0.13815789473684215
159,595.4688731284477,0.1842105263157895
160,598.2663514578408,0.125
161,598.2663514578408,0.11184210526315785
162,598.2663514578408,0.11842105263157898
163,598.2663514578408,0.09868421052631582
164,598.2663514578408,0.10526315789473684
165,601.0638297872342,0.09210526315789469
166,601.0638297872342,0.09868421052631582
167,601.0638297872342,0.08552631578947367
168,601.0638297872342,0.07236842105263153
169,601.0638297872342,0.07894736842105265
170,603.8613081166272,0.06578947368421051
171,603.8613081166272,0.07236842105263153
172,606.6587864460207,0.08552631578947367
173,606.6587864460207,0.06578947368421051
174,606.6587864460207,0.07236842105263153
175,606.6587864460207,0.07894736842105265
176,609.4562647754137,0.08552631578947367
177,609.4562647754137,0.09210526315789469
178,612.2537431048067,0.09868421052631582
179,612.2537431048067,0.11842105263157898
180,612.2537431048067,0.09210526315789469
181,612.2537431048067,0.125
182,612.2537431048067,0.11184210526315785
183,612.2537431048067,0.10526315789473684
184,615.0512214342002,0.14473684210526316
185,615.0512214342002,0.13815789473684215
186,615.0512214342002,0.13157894736842102
187,615.0512214342002,0.125
188,617.8486997635932,0.16447368421052633
189,617.8486997635932,0.17105263157894735
190,617.8486997635932,0.15131578947368418
191,617.8486997635932,0.14473684210526316
192,617.8486997635932,0.1578947368421053
193,620.6461780929867,0.17105263157894735
194,620.6461780929867,0.1842105263157895
195,620.6461780929867,0.2171052631578947
196,620.6461780929867,0.17763157894736847
197,620.6461780929867,0.1907894736842105
198,620.6461780929867,0.20394736842105265
199,620.6461780929867,0.21052631578947367
200,620.6461780929867,0.19736842105263153
201,623.4436564223797,0.22368421052631582
202,623.4436564223797,0.23684210526315785
203,623.4436564223797,0.2171052631578947
204,623.4436564223797,0.23026315789473684
205,626.2411347517732,0.256578947368421
206,626.2411347517732,0.24342105263157898
207,626.2411347517732,0.25
208,626.2411347517732,0.23684210526315785
209,629.0386130811662,0.256578947368421
210,629.0386130811662,0.24342105263157898
211,629.0386130811662,0.25
212,631.8360914105597,0.1907894736842105
213,631.8360914105597,0.19736842105263153
214,631.8360914105597,0.23684210526315785
215,631.8360914105597,0.20394736842105265
216,631.8360914105597,0.1842105263157895
217,631.8360914105597,0.21052631578947367
218,631.8360914105597,0.24342105263157898
219,631.8360914105597,0.22368421052631582
220,631.8360914105597,0.23026315789473684
221,631.8360914105597,0.2171052631578947
222,634.6335697399527,0.17763157894736847
223,634.6335697399527,0.17105263157894735
224,634.6335697399527,0.14473684210526316
225,634.6335697399527,0.15131578947368418
226,634.6335697399527,0.1578947368421053
227,634.6335697399527,0.16447368421052633
228,634.6335697399527,0.1842105263157895
229,637.4310480693462,0.13815789473684215
230,637.4310480693462,0.11842105263157898
231,637.4310480693462,0.125
232,637.4310480693462,0.13157894736842102
233,637.4310480693462,0.09868421052631582
234,637.4310480693462,0.09210526315789469
235,637.4310480693462,0.11184210526315785
236,637.4310480693462,0.10526315789473684
237,637.4310480693462,0.14473684210526316
238,637.4310480693462,0.08552631578947367
239,640.2285263987392,0.05921052631578949
240,640.2285263987392,0.08552631578947367
241,640.2285263987392,0.07236842105263153
242,640.2285263987392,0.07894736842105265
243,640.2285263987392,0.06578947368421051
244,643.0260047281322,0.052631578947368474
245,643.0260047281322,0.03947368421052633
246,643.0260047281322,0.046052631578947345
247,643.0260047281322,0.05921052631578949
248,645.8234830575257,0.03947368421052633
249,648.6209613869187,0.03289473684210531
250,648.6209613869187,0.03947368421052633
251,651.4184397163122,0.03289473684210531
252,654.2159180457052,0.03289473684210531
253,654.2159180457052,0.02631578947368418
254,657.0133963750986,0.02631578947368418
255,657.0133963750986,0.019736842105263164
256,659.8108747044917,0.019736842105263164
257,662.6083530338851,0.019736842105263164
258,665.4058313632781,0.019736842105263164
259,668.2033096926716,0.019736842105263164
260,671.0007880220646,0.019736842105263164
261,673.7982663514576,0.019736842105263164
262,676.5957446808511,0.019736842105263164
263,679.3932230102441,0.019736842105263164
264,682.1907013396376,0.019736842105263164
265,684.9881796690306,0.019736842105263164
266,687.7856579984241,0.019736842105263164
267,690.5831363278171,0.019736842105263164
268,693.3806146572106,0.019736842105263164
269,693.3806146572106,0.02631578947368418
270,696.1780929866036,0.02631578947368418
271,696.1780929866036,0.03289473684210531
272,698.9755713159971,0.03947368421052633
273,698.9755713159971,0.03289473684210531
274,701.7730496453901,0.03947368421052633
275,701.7730496453901,0.046052631578947345
276,704.5705279747831,0.052631578947368474
277,704.5705279747831,0.046052631578947345
278,707.3680063041766,0.06578947368421051
279,707.3680063041766,0.05921052631578949
280,707.3680063041766,0.07236842105263153
281,707.3680063041766,0.052631578947368474
282,710.1654846335696,0.08552631578947367
283,710.1654846335696,0.07894736842105265
284,710.1654846335696,0.07236842105263153
285,712.962962962963,0.11184210526315785
286,712.962962962963,0.125
287,712.962962962963,0.11842105263157898
288,712.962962962963,0.13157894736842102
289,712.962962962963,0.10526315789473684
290,712.962962962963,0.09210526315789469
291,712.962962962963,0.09868421052631582
292,712.962962962963,0.08552631578947367
293,715.7604412923561,0.13157894736842102
294,715.7604412923561,0.15131578947368418
295,715.7604412923561,0.14473684210526316
296,715.7604412923561,0.13815789473684215
297,718.5579196217495,0.15131578947368418
298,718.5579196217495,0.1578947368421053
299,721.3553979511425,0.14473684210526316
300,721.3553979511425,0.15131578947368418
301,721.3553979511425,0.13815789473684215
302,724.152876280536,0.13157894736842102
303,724.152876280536,0.13815789473684215
304,724.152876280536,0.125
305,726.950354609929,0.125
306,729.7478329393225,0.125
307,732.5453112687155,0.125
308,732.5453112687155,0.13157894736842102
309,735.3427895981085,0.13157894736842102
310,735.3427895981085,0.13815789473684215
311,738.140267927502,0.14473684210526316
312,738.140267927502,0.15131578947368418
313,738.140267927502,0.13815789473684215
314,740.937746256895,0.1578947368421053
315,743.7352245862885,0.16447368421052633
316,743.7352245862885,0.17105263157894735
317,743.7352245862885,0.17763157894736847
318,743.7352245862885,0.1578947368421053
319,746.5327029156815,0.1842105263157895
320,746.5327029156815,0.17763157894736847
321,749.330181245075,0.1907894736842105
322,749.330181245075,0.20394736842105265
323,749.330181245075,0.19736842105263153
324,749.330181245075,0.1842105263157895
325,752.127659574468,0.20394736842105265
326,752.127659574468,0.21052631578947367
327,754.9251379038615,0.21052631578947367
328,754.9251379038615,0.22368421052631582
329,754.9251379038615,0.23026315789473684
330,754.9251379038615,0.2171052631578947
331,757.7226162332545,0.23026315789473684
332,757.7226162332545,0.23684210526315785
333,760.520094562648,0.23684210526315785
334,760.520094562648,0.24342105263157898
335,763.317572892041,0.26315789473684215
336,763.317572892041,0.24342105263157898
337,763.317572892041,0.256578947368421
338,763.317572892041,0.25
339,766.115051221434,0.26315789473684215
340,766.115051221434,0.26973684210526316
341,768.9125295508275,0.2828947368421053
342,768.9125295508275,0.26973684210526316
343,768.9125295508275,0.2763157894736842
344,771.7100078802205,0.2828947368421053
345,774.507486209614,0.2894736842105263
346,774.507486209614,0.2828947368421053
347,777.304964539007,0.2894736842105263
348,780.1024428684004,0.2828947368421053
349,780.1024428684004,0.2763157894736842
350,780.1024428684004,0.2894736842105263
351,782.8999211977934,0.2763157894736842
352,782.8999211977934,0.26973684210526316
353,785.6973995271869,0.256578947368421
354,785.6973995271869,0.26315789473684215
355,785.6973995271869,0.26973684210526316
356,788.4948778565799,0.24342105263157898
357,788.4948778565799,0.256578947368421
358,788.4948778565799,0.23684210526315785
359,788.4948778565799,0.25
360,791.2923561859734,0.2171052631578947
361,791.2923561859734,0.23026315789473684
362,791.2923561859734,0.22368421052631582
363,791.2923561859734,0.23684210526315785
364,794.0898345153664,0.2171052631578947
365,794.0898345153664,0.20394736842105265
366,794.0898345153664,0.19736842105263153
367,794.0898345153664,0.21052631578947367
368,796.8873128447594,0.19736842105263153
369,796.8873128447594,0.1842105263157895
370,796.8873128447594,0.1907894736842105
371,799.6847911741529,0.17763157894736847
372,799.6847911741529,0.1842105263157895
373,802.4822695035459,0.17763157894736847
374,805.2797478329394,0.17105263157894735
375,805.2797478329394,0.17763157894736847
376,808.0772261623324,0.17105263157894735
377,810.8747044917259,0.16447368421052633
378,810.8747044917259,0.17105263157894735
379,813.6721828211189,0.16447368421052633
380,813.6721828211189,0.1578947368421053
381,816.4696611505124,0.1578947368421053
382,819.2671394799054,0.15131578947368418
383,819.2671394799054,0.1578947368421053
384,822.0646178092989,0.14473684210526316
385,822.0646178092989,0.15131578947368418
386,824.8620961386919,0.14473684210526316
387,827.6595744680849,0.14473684210526316
388,830.4570527974784,0.14473684210526316
389,833.2545311268714,0.14473684210526316
390,836.0520094562648,0.14473684210526316
391,838.8494877856579,0.14473684210526316
392,841.6469661150513,0.1578947368421053
393,841.6469661150513,0.14473684210526316
394,841.6469661150513,0.15131578947368418
395,844.4444444444443,0.1578947368421053
396,847.2419227738378,0.14473684210526316
397,847.2419227738378,0.15131578947368418
398,847.2419227738378,0.1578947368421053
399,850.0394011032308,0.14473684210526316
400,850.0394011032308,0.13815789473684215
401,850.0394011032308,0.13157894736842102
402,850.0394011032308,0.125
403,852.8368794326243,0.125
404,855.6343577620173,0.11842105263157898
405,855.6343577620173,0.125
406,858.4318360914103,0.11842105263157898
407,861.2293144208038,0.11842105263157898
408,864.0267927501968,0.11842105263157898
409,866.8242710795903,0.125
410,866.8242710795903,0.11842105263157898
411,869.6217494089833,0.125
412,872.4192277383768,0.13157894736842102
413,872.4192277383768,0.125
414,875.2167060677698,0.13157894736842102
415,878.0141843971633,0.13157894736842102
416,878.0141843971633,0.13815789473684215
417,880.8116627265563,0.13815789473684215
418,883.6091410559497,0.13815789473684215
419,883.6091410559497,0.14473684210526316
420,886.4066193853428,0.1578947368421053
421,886.4066193853428,0.15131578947368418
422,886.4066193853428,0.14473684210526316
423,889.2040977147362,0.1578947368421053
424,889.2040977147362,0.16447368421052633
425,892.0015760441293,0.1907894736842105
426,892.0015760441293,0.16447368421052633
427,892.0015760441293,0.17763157894736847
428,892.0015760441293,0.1842105263157895
429,892.0015760441293,0.17105263157894735
430,894.7990543735223,0.20394736842105265
431,894.7990543735223,0.19736842105263153
432,894.7990543735223,0.1907894736842105
433,897.5965327029157,0.23684210526315785
434,897.5965327029157,0.22368421052631582
435,897.5965327029157,0.24342105263157898
436,897.5965327029157,0.21052631578947367
437,897.5965327029157,0.23026315789473684
438,897.5965327029157,0.2171052631578947
439,897.5965327029157,0.20394736842105265
440,897.5965327029157,0.25
441,900.3940110323088,0.26315789473684215
442,900.3940110323088,0.25
443,900.3940110323088,0.26973684210526316
444,900.3940110323088,0.256578947368421
445,903.1914893617022,0.2763157894736842
446,903.1914893617022,0.2828947368421053
447,903.1914893617022,0.2894736842105263
448,903.1914893617022,0.26973684210526316
449,905.9889676910952,0.3223684210526315
450,905.9889676910952,0.2894736842105263
451,905.9889676910952,0.3157894736842105
452,905.9889676910952,0.3026315789473685
453,905.9889676910952,0.29605263157894735
454,905.9889676910952,0.3092105263157895
455,908.7864460204887,0.3355263157894737
456,908.7864460204887,0.3223684210526315
457,908.7864460204887,0.32894736842105265
458,911.5839243498817,0.35526315789473684
459,911.5839243498817,0.3486842105263158
460,911.5839243498817,0.36184210526315785
461,911.5839243498817,0.3421052631578947
462,911.5839243498817,0.3355263157894737
463,914.3814026792752,0.36184210526315785
464,914.3814026792752,0.375
465,914.3814026792752,0.368421052631579
466,917.1788810086682,0.38815789473684215
467,917.1788810086682,0.381578947368421
468,917.1788810086682,0.375
469,917.1788810086682,0.39473684210526316
470,917.1788810086682,0.4013157894736842
471,919.9763593380617,0.4078947368421053
472,919.9763593380617,0.4144736842105263
473,919.9763593380617,0.4013157894736842
474,922.7738376674547,0.4276315789473685
475,922.7738376674547,0.4342105263157895
476,922.7738376674547,0.42105263157894735
477,922.7738376674547,0.4144736842105263
478,925.5713159968477,0.4407894736842105
