,wavenumbers,absorbance
0,452.797478329393,0.019736842105263164
1,455.5949566587865,0.019736842105263164
2,458.3924349881795,0.019736842105263164
3,461.189913317573,0.019736842105263164
4,463.987391646966,0.019736842105263164
5,466.78486997635946,0.019736842105263164
6,469.5823483057525,0.019736842105263164
7,472.37982663514595,0.019736842105263164
8,475.17730496453896,0.019736842105263164
9,477.97478329393243,0.019736842105263164
10,480.77226162332545,0.019736842105263164
11,483.56973995271846,0.019736842105263164
12,486.36721828211193,0.019736842105263164
13,489.16469661150495,0.019736842105263164
14,491.9621749408984,0.019736842105263164
15,494.75965327029144,0.019736842105263164
16,497.5571315996849,0.019736842105263164
17,500.3546099290779,0.02631578947368418
18,500.3546099290779,0.019736842105263164
19,503.1520882584714,0.02631578947368418
20,505.9495665878644,0.02631578947368418
21,508.7470449172579,0.02631578947368418
22,511.5445232466509,0.02631578947368418
23,514.3420015760439,0.02631578947368418
24,514.3420015760439,0.03289473684210531
25,517.1394799054374,0.03289473684210531
26,519.9369582348304,0.03289473684210531
27,522.7344365642239,0.03289473684210531
28,525.5319148936169,0.03947368421052633
29,525.5319148936169,0.03289473684210531
30,528.3293932230104,0.03947368421052633
31,528.3293932230104,0.03289473684210531
32,531.1268715524034,0.03289473684210531
33,533.9243498817968,0.03289473684210531
34,536.7218282111899,0.03289473684210531
35,539.5193065405833,0.03289473684210531
36,539.5193065405833,0.02631578947368418
37,542.3167848699763,0.02631578947368418
38,545.1142631993694,0.02631578947368418
39,547.9117415287628,0.02631578947368418
40,550.7092198581558,0.02631578947368418
41,553.5066981875493,0.02631578947368418
42,556.3041765169423,0.02631578947368418
43,559.1016548463358,0.02631578947368418
44,561.8991331757288,0.02631578947368418
45,564.6966115051223,0.02631578947368418
46,567.4940898345153,0.02631578947368418
47,570.2915681639088,0.02631578947368418
48,573.0890464933018,0.02631578947368418
49,575.8865248226948,0.02631578947368418
50,578.6840031520883,0.02631578947368418
51,581.4814814814813,0.02631578947368418
52,584.2789598108748,0.02631578947368418
53,587.0764381402678,0.02631578947368418
54,589.8739164696613,0.02631578947368418
55,589.8739164696613,0.019736842105263164
56,592.6713947990543,0.019736842105263164
57,595.4688731284477,0.019736842105263164
58,598.2663514578408,0.019736842105263164
59,601.0638297872342,0.019736842105263164
60,603.8613081166272,0.019736842105263164
61,606.6587864460207,0.019736842105263164
62,609.4562647754137,0.019736842105263164
63,612.2537431048067,0.019736842105263164
64,615.0512214342002,0.019736842105263164
65,617.8486997635932,0.019736842105263164
66,620.6461780929867,0.019736842105263164
67,623.4436564223797,0.019736842105263164
68,626.2411347517732,0.019736842105263164
69,629.0386130811662,0.019736842105263164
70,631.8360914105597,0.019736842105263164
71,634.6335697399527,0.019736842105263164
72,637.4310480693462,0.019736842105263164
73,640.2285263987392,0.019736842105263164
74,643.0260047281322,0.019736842105263164
75,645.8234830575257,0.019736842105263164
76,648.6209613869187,0.019736842105263164
77,651.4184397163122,0.019736842105263164
78,654.2159180457052,0.019736842105263164
79,657.0133963750986,0.019736842105263164
80,659.8108747044917,0.019736842105263164
81,662.6083530338851,0.019736842105263164
82,665.4058313632781,0.019736842105263164
83,668.2033096926716,0.019736842105263164
84,671.0007880220646,0.019736842105263164
85,673.7982663514576,0.019736842105263164
86,676.5957446808511,0.019736842105263164
87,679.3932230102441,0.019736842105263164
88,682.1907013396376,0.019736842105263164
89,684.9881796690306,0.019736842105263164
90,687.7856579984241,0.019736842105263164
91,690.5831363278171,0.019736842105263164
92,693.3806146572106,0.019736842105263164
93,696.1780929866036,0.019736842105263164
94,698.9755713159971,0.019736842105263164
95,701.7730496453901,0.019736842105263164
96,704.5705279747831,0.019736842105263164
97,707.3680063041766,0.019736842105263164
98,710.1654846335696,0.019736842105263164
99,712.962962962963,0.019736842105263164
100,715.7604412923561,0.019736842105263164
101,718.5579196217495,0.019736842105263164
102,721.3553979511425,0.019736842105263164
103,724.152876280536,0.019736842105263164
104,726.950354609929,0.019736842105263164
105,729.7478329393225,0.019736842105263164
106,732.5453112687155,0.02631578947368418
107,732.5453112687155,0.019736842105263164
108,735.3427895981085,0.02631578947368418
109,735.3427895981085,0.019736842105263164
110,738.140267927502,0.019736842105263164
111,740.937746256895,0.019736842105263164
112,743.7352245862885,0.019736842105263164
113,746.5327029156815,0.019736842105263164
114,749.330181245075,0.019736842105263164
115,752.127659574468,0.019736842105263164
116,754.9251379038615,0.019736842105263164
117,757.7226162332545,0.019736842105263164
118,757.7226162332545,0.013157894736842146
119,760.520094562648,0.013157894736842146
120,760.520094562648,0.019736842105263164
121,763.317572892041,0.019736842105263164
122,766.115051221434,0.019736842105263164
123,768.9125295508275,0.019736842105263164
124,771.7100078802205,0.019736842105263164
125,774.507486209614,0.019736842105263164
126,777.304964539007,0.019736842105263164
127,780.1024428684004,0.019736842105263164
128,782.8999211977934,0.019736842105263164
129,785.6973995271869,0.019736842105263164
130,788.4948778565799,0.019736842105263164
131,791.2923561859734,0.02631578947368418
132,791.2923561859734,0.019736842105263164
133,794.0898345153664,0.02631578947368418
134,796.8873128447594,0.02631578947368418
135,799.6847911741529,0.02631578947368418
136,799.6847911741529,0.03289473684210531
137,802.4822695035459,0.03289473684210531
138,805.2797478329394,0.03289473684210531
139,805.2797478329394,0.03947368421052633
140,808.0772261623324,0.03947368421052633
141,810.8747044917259,0.03947368421052633
142,813.6721828211189,0.046052631578947345
143,813.6721828211189,0.03947368421052633
144,816.4696611505124,0.046052631578947345
145,819.2671394799054,0.046052631578947345
146,819.2671394799054,0.052631578947368474
147,819.2671394799054,0.05921052631578949
148,822.0646178092989,0.05921052631578949
149,822.0646178092989,0.06578947368421051
150,824.8620961386919,0.07894736842105265
151,824.8620961386919,0.07236842105263153
152,824.8620961386919,0.06578947368421051
153,827.6595744680849,0.07894736842105265
154,827.6595744680849,0.08552631578947367
155,830.4570527974784,0.09210526315789469
156,830.4570527974784,0.09868421052631582
157,830.4570527974784,0.10526315789473684
158,830.4570527974784,0.08552631578947367
159,830.4570527974784,0.11184210526315785
160,830.4570527974784,0.11842105263157898
161,833.2545311268714,0.1578947368421053
162,833.2545311268714,0.16447368421052633
163,833.2545311268714,0.14473684210526316
164,833.2545311268714,0.13815789473684215
165,833.2545311268714,0.13157894736842102
166,833.2545311268714,0.15131578947368418
167,833.2545311268714,0.125
168,833.2545311268714,0.11842105263157898
169,836.0520094562648,0.256578947368421
170,836.0520094562648,0.17105263157894735
171,836.0520094562648,0.26315789473684215
172,836.0520094562648,0.21052631578947367
173,836.0520094562648,0.2171052631578947
174,836.0520094562648,0.16447368421052633
175,836.0520094562648,0.25
176,836.0520094562648,0.1907894736842105
177,836.0520094562648,0.26973684210526316
178,836.0520094562648,0.19736842105263153
179,836.0520094562648,0.24342105263157898
180,836.0520094562648,0.1842105263157895
181,836.0520094562648,0.17763157894736847
182,836.0520094562648,0.2763157894736842
183,836.0520094562648,0.20394736842105265
184,836.0520094562648,0.23026315789473684
185,836.0520094562648,0.22368421052631582
186,836.0520094562648,0.2894736842105263
187,836.0520094562648,0.2828947368421053
188,836.0520094562648,0.23684210526315785
189,838.8494877856579,0.2894736842105263
190,838.8494877856579,0.2828947368421053
191,838.8494877856579,0.2763157894736842
192,838.8494877856579,0.26973684210526316
193,841.6469661150513,0.26973684210526316
194,841.6469661150513,0.20394736842105265
195,841.6469661150513,0.24342105263157898
196,841.6469661150513,0.19736842105263153
197,841.6469661150513,0.1907894736842105
198,841.6469661150513,0.22368421052631582
199,841.6469661150513,0.25
200,841.6469661150513,0.1842105263157895
201,841.6469661150513,0.21052631578947367
202,841.6469661150513,0.23026315789473684
203,841.6469661150513,0.17763157894736847
204,841.6469661150513,0.23684210526315785
205,841.6469661150513,0.26315789473684215
206,841.6469661150513,0.2171052631578947
207,841.6469661150513,0.256578947368421
208,844.4444444444443,0.17105263157894735
209,844.4444444444443,0.17763157894736847
210,844.4444444444443,0.13157894736842102
211,844.4444444444443,0.13815789473684215
212,844.4444444444443,0.16447368421052633
213,844.4444444444443,0.15131578947368418
214,844.4444444444443,0.1578947368421053
215,844.4444444444443,0.14473684210526316
216,847.2419227738378,0.11842105263157898
217,847.2419227738378,0.13157894736842102
218,847.2419227738378,0.11184210526315785
219,847.2419227738378,0.125
220,850.0394011032308,0.08552631578947367
221,850.0394011032308,0.09868421052631582
222,850.0394011032308,0.11184210526315785
223,850.0394011032308,0.09210526315789469
224,850.0394011032308,0.10526315789473684
225,852.8368794326243,0.08552631578947367
226,852.8368794326243,0.07894736842105265
227,855.6343577620173,0.07236842105263153
228,855.6343577620173,0.07894736842105265
229,858.4318360914103,0.06578947368421051
230,858.4318360914103,0.07236842105263153
231,861.2293144208038,0.06578947368421051
232,861.2293144208038,0.05921052631578949
233,864.0267927501968,0.05921052631578949
234,866.8242710795903,0.052631578947368474
235,866.8242710795903,0.05921052631578949
236,869.6217494089833,0.052631578947368474
237,872.4192277383768,0.052631578947368474
238,875.2167060677698,0.05921052631578949
239,875.2167060677698,0.052631578947368474
240,878.0141843971633,0.05921052631578949
241,880.8116627265563,0.06578947368421051
242,880.8116627265563,0.05921052631578949
243,883.6091410559497,0.06578947368421051
244,886.4066193853428,0.06578947368421051
245,889.2040977147362,0.06578947368421051
246,892.0015760441293,0.05921052631578949
247,892.0015760441293,0.06578947368421051
248,894.7990543735223,0.05921052631578949
249,897.5965327029157,0.05921052631578949
250,900.3940110323088,0.05921052631578949
251,903.1914893617022,0.05921052631578949
252,905.9889676910952,0.05921052631578949
253,908.7864460204887,0.05921052631578949
254,911.5839243498817,0.05921052631578949
255,911.5839243498817,0.06578947368421051
256,914.3814026792752,0.06578947368421051
257,917.1788810086682,0.07236842105263153
258,917.1788810086682,0.06578947368421051
259,919.9763593380617,0.07894736842105265
260,919.9763593380617,0.07236842105263153
261,922.7738376674547,0.07894736842105265
262,922.7738376674547,0.09210526315789469
263,922.7738376674547,0.08552631578947367
264,925.5713159968477,0.09210526315789469
265,928.3687943262412,0.09868421052631582
266,928.3687943262412,0.09210526315789469
267,931.1662726556342,0.10526315789473684
268,931.1662726556342,0.09868421052631582
269,933.9637509850277,0.10526315789473684
270,933.9637509850277,0.11184210526315785
271,936.7612293144207,0.11184210526315785
272,936.7612293144207,0.13815789473684215
273,936.7612293144207,0.11842105263157898
274,936.7612293144207,0.13157894736842102
275,936.7612293144207,0.125
276,939.5587076438142,0.13815789473684215
277,939.5587076438142,0.15131578947368418
278,939.5587076438142,0.14473684210526316
279,942.3561859732072,0.15131578947368418
280,942.3561859732072,0.1578947368421053
281,945.1536643026006,0.1578947368421053
282,945.1536643026006,0.15131578947368418
283,947.9511426319937,0.14473684210526316
284,947.9511426319937,0.15131578947368418
285,950.7486209613871,0.14473684210526316
286,953.5460992907801,0.14473684210526316
287,953.5460992907801,0.13157894736842102
288,953.5460992907801,0.13815789473684215
289,956.3435776201732,0.13157894736842102
290,959.1410559495666,0.14473684210526316
291,959.1410559495666,0.13815789473684215
292,959.1410559495666,0.13157894736842102
293,961.9385342789597,0.14473684210526316
294,961.9385342789597,0.13815789473684215
295,961.9385342789597,0.125
296,961.9385342789597,0.13157894736842102
297,964.7360126083531,0.09868421052631582
298,964.7360126083531,0.11842105263157898
299,964.7360126083531,0.125
300,964.7360126083531,0.11184210526315785
301,964.7360126083531,0.10526315789473684
302,967.5334909377461,0.09868421052631582
303,967.5334909377461,0.07236842105263153
304,967.5334909377461,0.07894736842105265
305,967.5334909377461,0.08552631578947367
306,967.5334909377461,0.09210526315789469
307,970.3309692671396,0.07236842105263153
308,973.1284475965326,0.07236842105263153
309,975.9259259259261,0.07236842105263153
310,978.7234042553191,0.06578947368421051
311,978.7234042553191,0.07236842105263153
312,981.5208825847126,0.06578947368421051
313,984.3183609141056,0.06578947368421051
314,987.1158392434986,0.06578947368421051
315,989.9133175728921,0.06578947368421051
316,992.7107959022851,0.07236842105263153
317,992.7107959022851,0.06578947368421051
318,995.5082742316786,0.06578947368421051
319,995.5082742316786,0.07236842105263153
320,998.3057525610716,0.07236842105263153
321,1001.103230890465,0.07236842105263153
322,1003.9007092198581,0.07236842105263153
323,1003.9007092198581,0.07894736842105265
324,1006.6981875492515,0.07894736842105265
325,1009.4956658786446,0.07894736842105265
326,1009.4956658786446,0.08552631578947367
327,1012.293144208038,0.08552631578947367
328,1012.293144208038,0.09210526315789469
329,1015.090622537431,0.09210526315789469
330,1015.090622537431,0.09868421052631582
331,1017.8881008668241,0.10526315789473684
332,1017.8881008668241,0.09868421052631582
333,1020.6855791962175,0.10526315789473684
334,1020.6855791962175,0.11184210526315785
335,1023.4830575256105,0.125
336,1023.4830575256105,0.13157894736842102
337,1023.4830575256105,0.11842105263157898
338,1023.4830575256105,0.11184210526315785
339,1026.280535855004,0.13157894736842102
340,1026.280535855004,0.13815789473684215
341,1029.078014184397,0.15131578947368418
342,1029.078014184397,0.14473684210526316
343,1029.078014184397,0.13815789473684215
344,1031.8754925137905,0.15131578947368418
345,1034.6729708431835,0.15131578947368418
346,1034.6729708431835,0.1578947368421053
347,1037.470449172577,0.1578947368421053
348,1037.470449172577,0.16447368421052633
349,1040.26792750197,0.16447368421052633
350,1043.0654058313635,0.16447368421052633
351,1043.0654058313635,0.17105263157894735
352,1045.8628841607565,0.17763157894736847
353,1045.8628841607565,0.1842105263157895
354,1045.8628841607565,0.17105263157894735
355,1048.6603624901495,0.1842105263157895
356,1048.6603624901495,0.1907894736842105
357,1048.6603624901495,0.19736842105263153
358,1048.6603624901495,0.20394736842105265
359,1048.6603624901495,0.21052631578947367
360,1048.6603624901495,0.2171052631578947
361,1048.6603624901495,0.22368421052631582
362,1051.457840819543,0.25
363,1051.457840819543,0.24342105263157898
364,1051.457840819543,0.23684210526315785
365,1051.457840819543,0.22368421052631582
366,1051.457840819543,0.256578947368421
367,1051.457840819543,0.23026315789473684
368,1054.255319148936,0.32894736842105265
369,1054.255319148936,0.2828947368421053
370,1054.255319148936,0.3092105263157895
371,1054.255319148936,0.3026315789473685
372,1054.255319148936,0.29605263157894735
373,1054.255319148936,0.2894736842105263
374,1054.255319148936,0.2763157894736842
375,1054.255319148936,0.26973684210526316
376,1054.255319148936,0.26315789473684215
377,1054.255319148936,0.256578947368421
378,1054.255319148936,0.3157894736842105
379,1054.255319148936,0.3355263157894737
380,1054.255319148936,0.3223684210526315
381,1054.255319148936,0.368421052631579
382,1054.255319148936,0.36184210526315785
383,1054.255319148936,0.3486842105263158
384,1054.255319148936,0.3421052631578947
385,1054.255319148936,0.35526315789473684
386,1057.0527974783295,0.38815789473684215
387,1057.0527974783295,0.368421052631579
388,1057.0527974783295,0.375
389,1057.0527974783295,0.381578947368421
390,1059.8502758077225,0.32894736842105265
391,1059.8502758077225,0.3157894736842105
392,1059.8502758077225,0.368421052631579
393,1059.8502758077225,0.3486842105263158
394,1059.8502758077225,0.3355263157894737
395,1059.8502758077225,0.35526315789473684
396,1059.8502758077225,0.381578947368421
397,1059.8502758077225,0.3223684210526315
398,1059.8502758077225,0.3421052631578947
399,1059.8502758077225,0.38815789473684215
400,1059.8502758077225,0.36184210526315785
401,1059.8502758077225,0.375
402,1062.647754137116,0.3092105263157895
403,1062.647754137116,0.3157894736842105
404,1062.647754137116,0.3026315789473685
405,1065.445232466509,0.29605263157894735
406,1065.445232466509,0.2894736842105263
407,1065.445232466509,0.3026315789473685
408,1068.2427107959024,0.2894736842105263
409,1071.0401891252955,0.2894736842105263
410,1071.0401891252955,0.29605263157894735
411,1073.837667454689,0.3026315789473685
412,1073.837667454689,0.29605263157894735
413,1076.635145784082,0.3026315789473685
414,1076.635145784082,0.3092105263157895
415,1079.432624113475,0.3355263157894737
416,1079.432624113475,0.3092105263157895
417,1079.432624113475,0.3157894736842105
418,1079.432624113475,0.3223684210526315
419,1079.432624113475,0.32894736842105265
420,1082.2301024428684,0.3421052631578947
421,1082.2301024428684,0.3355263157894737
422,1082.2301024428684,0.3486842105263158
423,1085.0275807722614,0.375
424,1085.0275807722614,0.381578947368421
425,1085.0275807722614,0.39473684210526316
426,1085.0275807722614,0.368421052631579
427,1085.0275807722614,0.38815789473684215
428,1085.0275807722614,0.36184210526315785
429,1085.0275807722614,0.35526315789473684
430,1085.0275807722614,0.3486842105263158
431,1087.825059101655,0.4144736842105263
432,1087.825059101655,0.4013157894736842
433,1087.825059101655,0.4078947368421053
434,1087.825059101655,0.42105263157894735
435,1087.825059101655,0.39473684210526316
436,1090.622537431048,0.42105263157894735
437,1090.622537431048,0.4342105263157895
438,1090.622537431048,0.4407894736842105
439,1090.622537431048,0.4473684210526315
440,1090.622537431048,0.45394736842105265
441,1090.622537431048,0.4605263157894737
442,1090.622537431048,0.48684210526315785
443,1090.622537431048,0.4671052631578947
444,1090.622537431048,0.4276315789473685
445,1090.622537431048,0.4736842105263158
446,1090.622537431048,0.48026315789473684
447,1093.4200157604414,0.48684210526315785
448,1093.4200157604414,0.493421052631579
449,1093.4200157604414,0.5
450,1093.4200157604414,0.506578947368421
451,1093.4200157604414,0.513157894736842
452,1093.4200157604414,0.5197368421052632
453,1093.4200157604414,0.5263157894736843
454,1096.2174940898344,0.5328947368421053
455,1096.2174940898344,0.5460526315789473
456,1096.2174940898344,0.5394736842105263
457,1096.2174940898344,0.5986842105263157
458,1096.2174940898344,0.5263157894736843
459,1096.2174940898344,0.5657894736842105
460,1096.2174940898344,0.5723684210526316
461,1096.2174940898344,0.5789473684210527
462,1096.2174940898344,0.618421052631579
463,1096.2174940898344,0.5526315789473684
464,1096.2174940898344,0.5855263157894737
465,1096.2174940898344,0.5921052631578947
466,1096.2174940898344,0.6052631578947368
467,1096.2174940898344,0.611842105263158
468,1096.2174940898344,0.5592105263157895
469,1099.014972419228,0.631578947368421
