,wavenumbers,absorbance
0,452.797478329393,0.02631578947368418
1,455.5949566587865,0.02631578947368418
2,458.3924349881795,0.03289473684210531
3,458.3924349881795,0.02631578947368418
4,461.189913317573,0.03289473684210531
5,463.987391646966,0.03289473684210531
6,466.78486997635946,0.03289473684210531
7,469.5823483057525,0.03289473684210531
8,469.5823483057525,0.02631578947368418
9,472.37982663514595,0.02631578947368418
10,475.17730496453896,0.02631578947368418
11,477.97478329393243,0.02631578947368418
12,480.77226162332545,0.02631578947368418
13,483.56973995271846,0.02631578947368418
14,486.36721828211193,0.02631578947368418
15,489.16469661150495,0.02631578947368418
16,491.9621749408984,0.02631578947368418
17,494.75965327029144,0.02631578947368418
18,497.5571315996849,0.02631578947368418
19,500.3546099290779,0.019736842105263164
20,500.3546099290779,0.02631578947368418
21,503.1520882584714,0.019736842105263164
22,505.9495665878644,0.019736842105263164
23,508.7470449172579,0.019736842105263164
24,511.5445232466509,0.019736842105263164
25,514.3420015760439,0.02631578947368418
26,514.3420015760439,0.019736842105263164
27,517.1394799054374,0.02631578947368418
28,519.9369582348304,0.019736842105263164
29,519.9369582348304,0.02631578947368418
30,522.7344365642239,0.019736842105263164
31,525.5319148936169,0.019736842105263164
32,528.3293932230104,0.019736842105263164
33,531.1268715524034,0.019736842105263164
34,533.9243498817968,0.019736842105263164
35,536.7218282111899,0.019736842105263164
36,539.5193065405833,0.019736842105263164
37,542.3167848699763,0.019736842105263164
38,545.1142631993694,0.019736842105263164
39,547.9117415287628,0.019736842105263164
40,550.7092198581558,0.019736842105263164
41,553.5066981875493,0.019736842105263164
42,556.3041765169423,0.019736842105263164
43,559.1016548463358,0.019736842105263164
44,561.8991331757288,0.019736842105263164
45,564.6966115051223,0.019736842105263164
46,567.4940898345153,0.019736842105263164
47,570.2915681639088,0.019736842105263164
48,573.0890464933018,0.019736842105263164
49,575.8865248226948,0.019736842105263164
50,578.6840031520883,0.019736842105263164
51,581.4814814814813,0.019736842105263164
52,584.2789598108748,0.019736842105263164
53,587.0764381402678,0.019736842105263164
54,589.8739164696613,0.03289473684210531
55,589.8739164696613,0.02631578947368418
56,589.8739164696613,0.019736842105263164
57,592.6713947990543,0.03289473684210531
58,595.4688731284477,0.03289473684210531
59,598.2663514578408,0.03289473684210531
60,601.0638297872342,0.03289473684210531
61,601.0638297872342,0.046052631578947345
62,601.0638297872342,0.03947368421052633
63,603.8613081166272,0.046052631578947345
64,606.6587864460207,0.046052631578947345
65,606.6587864460207,0.03947368421052633
66,606.6587864460207,0.03289473684210531
67,609.4562647754137,0.03289473684210531
68,612.2537431048067,0.03289473684210531
69,612.2537431048067,0.02631578947368418
70,615.0512214342002,0.02631578947368418
71,617.8486997635932,0.02631578947368418
72,620.6461780929867,0.02631578947368418
73,623.4436564223797,0.03289473684210531
74,623.4436564223797,0.02631578947368418
75,626.2411347517732,0.03289473684210531
76,629.0386130811662,0.03289473684210531
77,631.8360914105597,0.03289473684210531
78,634.6335697399527,0.03289473684210531
79,634.6335697399527,0.02631578947368418
80,637.4310480693462,0.02631578947368418
81,640.2285263987392,0.02631578947368418
82,643.0260047281322,0.02631578947368418
83,645.8234830575257,0.019736842105263164
84,645.8234830575257,0.02631578947368418
85,648.6209613869187,0.019736842105263164
86,651.4184397163122,0.019736842105263164
87,654.2159180457052,0.019736842105263164
88,657.0133963750986,0.019736842105263164
89,659.8108747044917,0.019736842105263164
90,662.6083530338851,0.019736842105263164
91,665.4058313632781,0.019736842105263164
92,668.2033096926716,0.019736842105263164
93,671.0007880220646,0.019736842105263164
94,673.7982663514576,0.019736842105263164
95,676.5957446808511,0.019736842105263164
96,679.3932230102441,0.019736842105263164
97,682.1907013396376,0.019736842105263164
98,684.9881796690306,0.019736842105263164
99,687.7856579984241,0.019736842105263164
100,690.5831363278171,0.02631578947368418
101,690.5831363278171,0.019736842105263164
102,693.3806146572106,0.02631578947368418
103,693.3806146572106,0.03289473684210531
104,696.1780929866036,0.03289473684210531
105,698.9755713159971,0.02631578947368418
106,698.9755713159971,0.03289473684210531
107,701.7730496453901,0.02631578947368418
108,704.5705279747831,0.02631578947368418
109,704.5705279747831,0.019736842105263164
110,707.3680063041766,0.019736842105263164
111,710.1654846335696,0.019736842105263164
112,712.962962962963,0.019736842105263164
113,715.7604412923561,0.019736842105263164
114,715.7604412923561,0.02631578947368418
115,718.5579196217495,0.03289473684210531
116,718.5579196217495,0.02631578947368418
117,718.5579196217495,0.019736842105263164
118,721.3553979511425,0.03947368421052633
119,721.3553979511425,0.03289473684210531
120,724.152876280536,0.03947368421052633
121,726.950354609929,0.03947368421052633
122,729.7478329393225,0.03947368421052633
123,732.5453112687155,0.03947368421052633
124,732.5453112687155,0.03289473684210531
125,735.3427895981085,0.02631578947368418
126,735.3427895981085,0.03289473684210531
127,738.140267927502,0.02631578947368418
128,738.140267927502,0.03289473684210531
129,740.937746256895,0.03289473684210531
130,743.7352245862885,0.03289473684210531
131,746.5327029156815,0.03289473684210531
132,749.330181245075,0.03289473684210531
133,749.330181245075,0.03947368421052633
134,752.127659574468,0.03947368421052633
135,754.9251379038615,0.03947368421052633
136,754.9251379038615,0.046052631578947345
137,757.7226162332545,0.046052631578947345
138,760.520094562648,0.046052631578947345
139,763.317572892041,0.046052631578947345
140,763.317572892041,0.052631578947368474
141,766.115051221434,0.052631578947368474
142,768.9125295508275,0.052631578947368474
143,768.9125295508275,0.046052631578947345
144,771.7100078802205,0.046052631578947345
145,774.507486209614,0.046052631578947345
146,774.507486209614,0.03947368421052633
147,777.304964539007,0.03947368421052633
148,780.1024428684004,0.03947368421052633
149,780.1024428684004,0.03289473684210531
150,782.8999211977934,0.03289473684210531
151,785.6973995271869,0.03289473684210531
152,788.4948778565799,0.03289473684210531
153,788.4948778565799,0.02631578947368418
154,791.2923561859734,0.02631578947368418
155,794.0898345153664,0.02631578947368418
156,796.8873128447594,0.02631578947368418
157,799.6847911741529,0.02631578947368418
158,802.4822695035459,0.02631578947368418
159,805.2797478329394,0.02631578947368418
160,808.0772261623324,0.02631578947368418
161,810.8747044917259,0.02631578947368418
162,813.6721828211189,0.02631578947368418
163,816.4696611505124,0.02631578947368418
164,819.2671394799054,0.02631578947368418
165,822.0646178092989,0.02631578947368418
166,824.8620961386919,0.02631578947368418
167,827.6595744680849,0.02631578947368418
168,830.4570527974784,0.02631578947368418
169,833.2545311268714,0.02631578947368418
170,833.2545311268714,0.019736842105263164
171,836.0520094562648,0.019736842105263164
172,838.8494877856579,0.019736842105263164
173,841.6469661150513,0.019736842105263164
174,844.4444444444443,0.019736842105263164
175,847.2419227738378,0.019736842105263164
176,850.0394011032308,0.019736842105263164
177,852.8368794326243,0.019736842105263164
178,855.6343577620173,0.019736842105263164
179,858.4318360914103,0.019736842105263164
180,861.2293144208038,0.019736842105263164
181,864.0267927501968,0.019736842105263164
182,866.8242710795903,0.019736842105263164
183,869.6217494089833,0.019736842105263164
184,872.4192277383768,0.019736842105263164
185,875.2167060677698,0.019736842105263164
186,878.0141843971633,0.019736842105263164
187,880.8116627265563,0.019736842105263164
188,883.6091410559497,0.019736842105263164
189,886.4066193853428,0.02631578947368418
190,886.4066193853428,0.019736842105263164
191,889.2040977147362,0.02631578947368418
192,892.0015760441293,0.02631578947368418
193,892.0015760441293,0.03289473684210531
194,894.7990543735223,0.03289473684210531
195,897.5965327029157,0.03289473684210531
196,897.5965327029157,0.03947368421052633
197,900.3940110323088,0.03947368421052633
198,903.1914893617022,0.03947368421052633
199,905.9889676910952,0.03947368421052633
200,908.7864460204887,0.03947368421052633
201,911.5839243498817,0.03947368421052633
202,914.3814026792752,0.03947368421052633
203,917.1788810086682,0.046052631578947345
204,917.1788810086682,0.03947368421052633
205,919.9763593380617,0.046052631578947345
206,922.7738376674547,0.052631578947368474
207,922.7738376674547,0.046052631578947345
208,925.5713159968477,0.052631578947368474
209,925.5713159968477,0.05921052631578949
210,928.3687943262412,0.05921052631578949
211,931.1662726556342,0.05921052631578949
212,931.1662726556342,0.06578947368421051
213,933.9637509850277,0.06578947368421051
214,933.9637509850277,0.07236842105263153
215,936.7612293144207,0.07236842105263153
216,939.5587076438142,0.07236842105263153
217,942.3561859732072,0.07236842105263153
218,942.3561859732072,0.07894736842105265
219,945.1536643026006,0.07236842105263153
220,945.1536643026006,0.07894736842105265
221,947.9511426319937,0.07236842105263153
222,950.7486209613871,0.07236842105263153
223,953.5460992907801,0.07236842105263153
224,956.3435776201732,0.07236842105263153
225,956.3435776201732,0.06578947368421051
226,959.1410559495666,0.06578947368421051
227,961.9385342789597,0.05921052631578949
228,961.9385342789597,0.06578947368421051
229,964.7360126083531,0.05921052631578949
230,967.5334909377461,0.05921052631578949
231,970.3309692671396,0.052631578947368474
232,970.3309692671396,0.05921052631578949
233,973.1284475965326,0.052631578947368474
234,973.1284475965326,0.05921052631578949
235,975.9259259259261,0.05921052631578949
236,978.7234042553191,0.05921052631578949
237,981.5208825847126,0.05921052631578949
238,984.3183609141056,0.05921052631578949
239,987.1158392434986,0.05921052631578949
240,989.9133175728921,0.05921052631578949
241,989.9133175728921,0.06578947368421051
242,992.7107959022851,0.06578947368421051
243,995.5082742316786,0.06578947368421051
244,998.3057525610716,0.06578947368421051
245,998.3057525610716,0.07236842105263153
246,1001.103230890465,0.07894736842105265
247,1001.103230890465,0.07236842105263153
248,1003.9007092198581,0.09210526315789469
249,1003.9007092198581,0.07894736842105265
250,1003.9007092198581,0.08552631578947367
251,1006.6981875492515,0.09868421052631582
252,1006.6981875492515,0.09210526315789469
253,1009.4956658786446,0.09868421052631582
254,1009.4956658786446,0.10526315789473684
255,1009.4956658786446,0.11842105263157898
256,1009.4956658786446,0.11184210526315785
257,1012.293144208038,0.125
258,1012.293144208038,0.11842105263157898
259,1012.293144208038,0.13157894736842102
260,1015.090622537431,0.13157894736842102
261,1015.090622537431,0.13815789473684215
262,1017.8881008668241,0.15131578947368418
263,1017.8881008668241,0.14473684210526316
264,1017.8881008668241,0.1578947368421053
265,1017.8881008668241,0.13815789473684215
266,1020.6855791962175,0.1578947368421053
267,1023.4830575256105,0.1578947368421053
268,1023.4830575256105,0.15131578947368418
269,1026.280535855004,0.15131578947368418
270,1026.280535855004,0.14473684210526316
271,1029.078014184397,0.13815789473684215
272,1029.078014184397,0.14473684210526316
273,1031.8754925137905,0.13815789473684215
274,1031.8754925137905,0.13157894736842102
275,1034.6729708431835,0.13157894736842102
276,1037.470449172577,0.13157894736842102
277,1040.26792750197,0.13157894736842102
278,1043.0654058313635,0.13157894736842102
279,1045.8628841607565,0.13157894736842102
280,1045.8628841607565,0.125
281,1048.6603624901495,0.11842105263157898
282,1048.6603624901495,0.125
283,1051.457840819543,0.11842105263157898
284,1054.255319148936,0.11184210526315785
285,1054.255319148936,0.11842105263157898
286,1057.0527974783295,0.11184210526315785
287,1059.8502758077225,0.10526315789473684
288,1059.8502758077225,0.11184210526315785
289,1062.647754137116,0.10526315789473684
290,1065.445232466509,0.10526315789473684
291,1068.2427107959024,0.10526315789473684
292,1071.0401891252955,0.10526315789473684
293,1073.837667454689,0.10526315789473684
294,1073.837667454689,0.09868421052631582
295,1076.635145784082,0.09868421052631582
296,1079.432624113475,0.09868421052631582
297,1082.2301024428684,0.09868421052631582
298,1085.0275807722614,0.09868421052631582
299,1085.0275807722614,0.09210526315789469
300,1087.825059101655,0.09210526315789469
301,1090.622537431048,0.09210526315789469
302,1093.4200157604414,0.09210526315789469
303,1096.2174940898344,0.09210526315789469
304,1099.014972419228,0.09210526315789469
305,1099.014972419228,0.09868421052631582
306,1101.812450748621,0.09868421052631582
307,1104.6099290780144,0.10526315789473684
308,1104.6099290780144,0.09868421052631582
309,1104.6099290780144,0.11184210526315785
310,1107.4074074074074,0.11184210526315785
311,1107.4074074074074,0.11842105263157898
312,1110.2048857368004,0.125
313,1110.2048857368004,0.11842105263157898
314,1113.0023640661939,0.13157894736842102
315,1113.0023640661939,0.125
316,1115.799842395587,0.13157894736842102
317,1115.799842395587,0.13815789473684215
318,1118.5973207249804,0.13815789473684215
319,1118.5973207249804,0.13157894736842102
320,1121.3947990543734,0.13157894736842102
321,1124.1922773837669,0.13157894736842102
322,1126.9897557131599,0.13157894736842102
323,1126.9897557131599,0.125
324,1129.7872340425533,0.125
325,1132.5847123719464,0.125
326,1135.3821907013398,0.125
327,1135.3821907013398,0.13157894736842102
328,1138.1796690307328,0.13157894736842102
329,1138.1796690307328,0.13815789473684215
330,1140.9771473601263,0.13815789473684215
331,1140.9771473601263,0.16447368421052633
332,1140.9771473601263,0.15131578947368418
333,1140.9771473601263,0.14473684210526316
334,1140.9771473601263,0.1578947368421053
335,1143.7746256895193,0.17105263157894735
336,1143.7746256895193,0.16447368421052633
337,1143.7746256895193,0.17763157894736847
338,1143.7746256895193,0.1842105263157895
339,1146.5721040189123,0.22368421052631582
340,1146.5721040189123,0.20394736842105265
341,1146.5721040189123,0.1842105263157895
342,1146.5721040189123,0.21052631578947367
343,1146.5721040189123,0.2171052631578947
344,1146.5721040189123,0.23026315789473684
345,1146.5721040189123,0.1907894736842105
346,1146.5721040189123,0.19736842105263153
347,1149.3695823483058,0.23684210526315785
348,1149.3695823483058,0.25
349,1149.3695823483058,0.24342105263157898
350,1149.3695823483058,0.256578947368421
351,1149.3695823483058,0.23026315789473684
352,1149.3695823483058,0.26315789473684215
353,1152.1670606776988,0.2763157894736842
354,1152.1670606776988,0.29605263157894735
355,1152.1670606776988,0.3157894736842105
356,1152.1670606776988,0.2828947368421053
357,1152.1670606776988,0.3223684210526315
358,1152.1670606776988,0.3026315789473685
359,1152.1670606776988,0.3092105263157895
360,1152.1670606776988,0.26973684210526316
361,1152.1670606776988,0.26315789473684215
362,1152.1670606776988,0.2894736842105263
363,1154.9645390070923,0.3355263157894737
364,1154.9645390070923,0.32894736842105265
365,1154.9645390070923,0.3421052631578947
366,1154.9645390070923,0.3223684210526315
367,1154.9645390070923,0.3486842105263158
368,1157.7620173364853,0.3486842105263158
369,1157.7620173364853,0.368421052631579
370,1157.7620173364853,0.36184210526315785
371,1157.7620173364853,0.35526315789473684
372,1160.5594956658788,0.368421052631579
373,1160.5594956658788,0.39473684210526316
374,1160.5594956658788,0.375
375,1160.5594956658788,0.381578947368421
376,1160.5594956658788,0.38815789473684215
377,1163.3569739952718,0.4013157894736842
378,1163.3569739952718,0.39473684210526316
379,1166.1544523246653,0.4013157894736842
380,1166.1544523246653,0.39473684210526316
381,1168.9519306540583,0.381578947368421
382,1168.9519306540583,0.39473684210526316
383,1168.9519306540583,0.38815789473684215
384,1171.7494089834518,0.381578947368421
385,1171.7494089834518,0.36184210526315785
386,1171.7494089834518,0.3486842105263158
387,1171.7494089834518,0.375
388,1171.7494089834518,0.368421052631579
389,1171.7494089834518,0.3421052631578947
390,1171.7494089834518,0.35526315789473684
391,1174.5468873128448,0.3421052631578947
392,1174.5468873128448,0.3355263157894737
393,1174.5468873128448,0.32894736842105265
394,1174.5468873128448,0.3223684210526315
395,1174.5468873128448,0.3157894736842105
396,1177.3443656422378,0.3092105263157895
397,1177.3443656422378,0.2894736842105263
398,1177.3443656422378,0.3157894736842105
399,1177.3443656422378,0.29605263157894735
400,1177.3443656422378,0.2763157894736842
401,1177.3443656422378,0.3026315789473685
402,1177.3443656422378,0.2828947368421053
403,1177.3443656422378,0.26973684210526316
404,1180.1418439716313,0.26315789473684215
405,1180.1418439716313,0.25
406,1180.1418439716313,0.256578947368421
407,1180.1418439716313,0.26973684210526316
408,1182.9393223010243,0.23684210526315785
409,1182.9393223010243,0.24342105263157898
410,1182.9393223010243,0.25
411,1185.7368006304177,0.2171052631578947
412,1185.7368006304177,0.23684210526315785
413,1185.7368006304177,0.22368421052631582
414,1185.7368006304177,0.21052631578947367
415,1185.7368006304177,0.23026315789473684
416,1188.5342789598108,0.21052631578947367
417,1188.5342789598108,0.20394736842105265
418,1191.3317572892042,0.1907894736842105
419,1191.3317572892042,0.20394736842105265
420,1191.3317572892042,0.19736842105263153
421,1194.1292356185972,0.1907894736842105
422,1196.9267139479907,0.1907894736842105
423,1199.7241922773837,0.1907894736842105
424,1202.5216706067772,0.1907894736842105
425,1202.5216706067772,0.20394736842105265
426,1202.5216706067772,0.19736842105263153
427,1205.3191489361702,0.21052631578947367
428,1205.3191489361702,0.20394736842105265
429,1208.1166272655632,0.2171052631578947
430,1208.1166272655632,0.23026315789473684
431,1208.1166272655632,0.21052631578947367
432,1208.1166272655632,0.22368421052631582
433,1210.9141055949567,0.24342105263157898
434,1210.9141055949567,0.25
435,1210.9141055949567,0.23026315789473684
436,1210.9141055949567,0.23684210526315785
437,1213.7115839243497,0.256578947368421
438,1213.7115839243497,0.26973684210526316
439,1213.7115839243497,0.26315789473684215
440,1213.7115839243497,0.25
441,1216.5090622537432,0.26973684210526316
442,1216.5090622537432,0.29605263157894735
443,1216.5090622537432,0.2763157894736842
444,1216.5090622537432,0.3026315789473685
445,1216.5090622537432,0.2894736842105263
446,1216.5090622537432,0.3092105263157895
447,1216.5090622537432,0.3157894736842105
448,1216.5090622537432,0.2828947368421053
449,1216.5090622537432,0.3223684210526315
450,1219.3065405831362,0.3223684210526315
451,1219.3065405831362,0.32894736842105265
452,1219.3065405831362,0.3355263157894737
453,1219.3065405831362,0.3421052631578947
454,1219.3065405831362,0.3486842105263158
455,1219.3065405831362,0.35526315789473684
456,1219.3065405831362,0.36184210526315785
457,1222.1040189125297,0.39473684210526316
458,1222.1040189125297,0.4078947368421053
459,1222.1040189125297,0.4144736842105263
460,1222.1040189125297,0.4342105263157895
461,1222.1040189125297,0.4276315789473685
462,1222.1040189125297,0.38815789473684215
463,1222.1040189125297,0.4407894736842105
464,1222.1040189125297,0.4473684210526315
465,1222.1040189125297,0.42105263157894735
466,1222.1040189125297,0.381578947368421
