,wavenumbers,absorbance
0,452.797478329393,0.019736842105263164
1,455.5949566587865,0.019736842105263164
2,458.3924349881795,0.019736842105263164
3,461.189913317573,0.019736842105263164
4,463.987391646966,0.019736842105263164
5,466.78486997635946,0.019736842105263164
6,469.5823483057525,0.019736842105263164
7,472.37982663514595,0.019736842105263164
8,475.17730496453896,0.019736842105263164
9,477.97478329393243,0.019736842105263164
10,480.77226162332545,0.019736842105263164
11,483.56973995271846,0.019736842105263164
12,486.36721828211193,0.019736842105263164
13,489.16469661150495,0.019736842105263164
14,491.9621749408984,0.019736842105263164
15,494.75965327029144,0.019736842105263164
16,497.5571315996849,0.019736842105263164
17,500.3546099290779,0.019736842105263164
18,503.1520882584714,0.019736842105263164
19,505.9495665878644,0.019736842105263164
20,508.7470449172579,0.019736842105263164
21,511.5445232466509,0.019736842105263164
22,511.5445232466509,0.02631578947368418
23,514.3420015760439,0.019736842105263164
24,514.3420015760439,0.02631578947368418
25,517.1394799054374,0.019736842105263164
26,519.9369582348304,0.019736842105263164
27,522.7344365642239,0.019736842105263164
28,525.5319148936169,0.019736842105263164
29,528.3293932230104,0.019736842105263164
30,531.1268715524034,0.019736842105263164
31,533.9243498817968,0.019736842105263164
32,533.9243498817968,0.02631578947368418
33,536.7218282111899,0.019736842105263164
34,536.7218282111899,0.02631578947368418
35,539.5193065405833,0.02631578947368418
36,542.3167848699763,0.02631578947368418
37,545.1142631993694,0.02631578947368418
38,547.9117415287628,0.02631578947368418
39,550.7092198581558,0.02631578947368418
40,550.7092198581558,0.03289473684210531
41,553.5066981875493,0.03289473684210531
42,556.3041765169423,0.03289473684210531
43,559.1016548463358,0.03289473684210531
44,561.8991331757288,0.03289473684210531
45,564.6966115051223,0.03289473684210531
46,567.4940898345153,0.03289473684210531
47,570.2915681639088,0.03289473684210531
48,573.0890464933018,0.03289473684210531
49,575.8865248226948,0.03947368421052633
50,575.8865248226948,0.03289473684210531
51,578.6840031520883,0.03947368421052633
52,581.4814814814813,0.03947368421052633
53,584.2789598108748,0.03947368421052633
54,587.0764381402678,0.03947368421052633
55,589.8739164696613,0.03947368421052633
56,592.6713947990543,0.03947368421052633
57,595.4688731284477,0.03947368421052633
58,598.2663514578408,0.03947368421052633
59,601.0638297872342,0.03947368421052633
60,603.8613081166272,0.03947368421052633
61,606.6587864460207,0.03947368421052633
62,606.6587864460207,0.046052631578947345
63,609.4562647754137,0.046052631578947345
64,612.2537431048067,0.046052631578947345
65,615.0512214342002,0.046052631578947345
66,617.8486997635932,0.046052631578947345
67,620.6461780929867,0.046052631578947345
68,623.4436564223797,0.046052631578947345
69,626.2411347517732,0.052631578947368474
70,626.2411347517732,0.046052631578947345
71,629.0386130811662,0.052631578947368474
72,631.8360914105597,0.052631578947368474
73,634.6335697399527,0.052631578947368474
74,637.4310480693462,0.052631578947368474
75,640.2285263987392,0.052631578947368474
76,643.0260047281322,0.052631578947368474
77,645.8234830575257,0.052631578947368474
78,648.6209613869187,0.052631578947368474
79,651.4184397163122,0.052631578947368474
80,654.2159180457052,0.052631578947368474
81,657.0133963750986,0.052631578947368474
82,659.8108747044917,0.052631578947368474
83,662.6083530338851,0.05921052631578949
84,662.6083530338851,0.052631578947368474
85,665.4058313632781,0.05921052631578949
86,668.2033096926716,0.05921052631578949
87,671.0007880220646,0.05921052631578949
88,673.7982663514576,0.05921052631578949
89,676.5957446808511,0.05921052631578949
90,679.3932230102441,0.05921052631578949
91,682.1907013396376,0.05921052631578949
92,684.9881796690306,0.05921052631578949
93,687.7856579984241,0.05921052631578949
94,690.5831363278171,0.05921052631578949
95,693.3806146572106,0.05921052631578949
96,696.1780929866036,0.05921052631578949
97,698.9755713159971,0.05921052631578949
98,701.7730496453901,0.05921052631578949
99,701.7730496453901,0.06578947368421051
100,704.5705279747831,0.06578947368421051
101,707.3680063041766,0.06578947368421051
102,707.3680063041766,0.07894736842105265
103,707.3680063041766,0.07236842105263153
104,710.1654846335696,0.08552631578947367
105,710.1654846335696,0.07894736842105265
106,712.962962962963,0.11842105263157898
107,712.962962962963,0.125
108,712.962962962963,0.11184210526315785
109,712.962962962963,0.14473684210526316
110,712.962962962963,0.13157894736842102
111,712.962962962963,0.08552631578947367
112,712.962962962963,0.10526315789473684
113,712.962962962963,0.09210526315789469
114,712.962962962963,0.13815789473684215
115,712.962962962963,0.09868421052631582
116,715.7604412923561,0.15131578947368418
117,715.7604412923561,0.14473684210526316
118,718.5579196217495,0.14473684210526316
119,718.5579196217495,0.13157894736842102
120,718.5579196217495,0.13815789473684215
121,718.5579196217495,0.11842105263157898
122,718.5579196217495,0.11184210526315785
123,718.5579196217495,0.15131578947368418
124,718.5579196217495,0.125
125,721.3553979511425,0.11184210526315785
126,721.3553979511425,0.10526315789473684
127,724.152876280536,0.09868421052631582
128,724.152876280536,0.10526315789473684
129,726.950354609929,0.07894736842105265
130,726.950354609929,0.08552631578947367
131,726.950354609929,0.09210526315789469
132,726.950354609929,0.09868421052631582
133,729.7478329393225,0.07236842105263153
134,729.7478329393225,0.06578947368421051
135,729.7478329393225,0.07894736842105265
136,732.5453112687155,0.05921052631578949
137,732.5453112687155,0.06578947368421051
138,735.3427895981085,0.05921052631578949
139,735.3427895981085,0.052631578947368474
140,738.140267927502,0.052631578947368474
141,740.937746256895,0.052631578947368474
142,743.7352245862885,0.046052631578947345
143,743.7352245862885,0.052631578947368474
144,746.5327029156815,0.046052631578947345
145,749.330181245075,0.046052631578947345
146,752.127659574468,0.046052631578947345
147,754.9251379038615,0.046052631578947345
148,757.7226162332545,0.046052631578947345
149,760.520094562648,0.046052631578947345
150,763.317572892041,0.046052631578947345
151,763.317572892041,0.03947368421052633
152,766.115051221434,0.03947368421052633
153,768.9125295508275,0.03947368421052633
154,771.7100078802205,0.03947368421052633
155,774.507486209614,0.03289473684210531
156,774.507486209614,0.03947368421052633
157,777.304964539007,0.03289473684210531
158,780.1024428684004,0.03289473684210531
159,782.8999211977934,0.03289473684210531
160,785.6973995271869,0.03289473684210531
161,788.4948778565799,0.02631578947368418
162,788.4948778565799,0.03289473684210531
163,791.2923561859734,0.02631578947368418
164,794.0898345153664,0.02631578947368418
165,796.8873128447594,0.02631578947368418
166,799.6847911741529,0.019736842105263164
167,799.6847911741529,0.02631578947368418
168,802.4822695035459,0.019736842105263164
169,805.2797478329394,0.019736842105263164
170,808.0772261623324,0.019736842105263164
171,810.8747044917259,0.019736842105263164
172,813.6721828211189,0.019736842105263164
173,816.4696611505124,0.019736842105263164
174,819.2671394799054,0.019736842105263164
175,822.0646178092989,0.019736842105263164
176,824.8620961386919,0.019736842105263164
177,827.6595744680849,0.019736842105263164
178,830.4570527974784,0.019736842105263164
179,833.2545311268714,0.019736842105263164
180,836.0520094562648,0.019736842105263164
181,838.8494877856579,0.019736842105263164
182,841.6469661150513,0.019736842105263164
183,844.4444444444443,0.019736842105263164
184,847.2419227738378,0.019736842105263164
185,850.0394011032308,0.019736842105263164
186,852.8368794326243,0.019736842105263164
187,855.6343577620173,0.019736842105263164
188,858.4318360914103,0.019736842105263164
189,861.2293144208038,0.019736842105263164
190,864.0267927501968,0.019736842105263164
191,866.8242710795903,0.019736842105263164
192,869.6217494089833,0.019736842105263164
193,872.4192277383768,0.019736842105263164
194,875.2167060677698,0.02631578947368418
195,875.2167060677698,0.019736842105263164
196,878.0141843971633,0.02631578947368418
197,880.8116627265563,0.02631578947368418
198,880.8116627265563,0.03289473684210531
199,883.6091410559497,0.03289473684210531
200,886.4066193853428,0.03289473684210531
201,889.2040977147362,0.03289473684210531
202,892.0015760441293,0.03289473684210531
203,894.7990543735223,0.03289473684210531
204,897.5965327029157,0.03289473684210531
205,900.3940110323088,0.03289473684210531
206,903.1914893617022,0.03289473684210531
207,905.9889676910952,0.03947368421052633
208,905.9889676910952,0.03289473684210531
209,908.7864460204887,0.03289473684210531
210,911.5839243498817,0.03289473684210531
211,911.5839243498817,0.03947368421052633
212,914.3814026792752,0.03947368421052633
213,917.1788810086682,0.03947368421052633
214,919.9763593380617,0.03947368421052633
215,922.7738376674547,0.03947368421052633
216,925.5713159968477,0.03947368421052633
217,928.3687943262412,0.03947368421052633
218,931.1662726556342,0.046052631578947345
219,931.1662726556342,0.03947368421052633
220,933.9637509850277,0.046052631578947345
221,936.7612293144207,0.046052631578947345
222,939.5587076438142,0.046052631578947345
223,942.3561859732072,0.046052631578947345
224,945.1536643026006,0.046052631578947345
225,947.9511426319937,0.046052631578947345
226,950.7486209613871,0.046052631578947345
227,950.7486209613871,0.03947368421052633
228,953.5460992907801,0.03947368421052633
229,956.3435776201732,0.03947368421052633
230,959.1410559495666,0.03947368421052633
231,961.9385342789597,0.03947368421052633
232,961.9385342789597,0.03289473684210531
233,964.7360126083531,0.03289473684210531
234,967.5334909377461,0.03289473684210531
235,970.3309692671396,0.03289473684210531
236,973.1284475965326,0.03289473684210531
237,973.1284475965326,0.02631578947368418
238,975.9259259259261,0.02631578947368418
239,978.7234042553191,0.02631578947368418
240,981.5208825847126,0.02631578947368418
241,984.3183609141056,0.02631578947368418
242,987.1158392434986,0.02631578947368418
243,989.9133175728921,0.02631578947368418
244,992.7107959022851,0.02631578947368418
245,995.5082742316786,0.02631578947368418
246,998.3057525610716,0.02631578947368418
247,1001.103230890465,0.02631578947368418
248,1003.9007092198581,0.02631578947368418
249,1003.9007092198581,0.03289473684210531
250,1006.6981875492515,0.03289473684210531
251,1009.4956658786446,0.03289473684210531
252,1012.293144208038,0.03289473684210531
253,1015.090622537431,0.03289473684210531
254,1017.8881008668241,0.03289473684210531
255,1020.6855791962175,0.03289473684210531
256,1023.4830575256105,0.03289473684210531
257,1026.280535855004,0.03289473684210531
258,1029.078014184397,0.03289473684210531
259,1031.8754925137905,0.03289473684210531
260,1034.6729708431835,0.03289473684210531
261,1037.470449172577,0.03289473684210531
262,1040.26792750197,0.03289473684210531
263,1043.0654058313635,0.03289473684210531
264,1045.8628841607565,0.03289473684210531
265,1048.6603624901495,0.03289473684210531
266,1051.457840819543,0.03289473684210531
267,1054.255319148936,0.03289473684210531
268,1057.0527974783295,0.03289473684210531
269,1059.8502758077225,0.03289473684210531
270,1062.647754137116,0.03289473684210531
271,1065.445232466509,0.03947368421052633
272,1065.445232466509,0.03289473684210531
273,1068.2427107959024,0.03947368421052633
274,1071.0401891252955,0.03947368421052633
275,1073.837667454689,0.03947368421052633
276,1076.635145784082,0.03947368421052633
277,1079.432624113475,0.03947368421052633
278,1082.2301024428684,0.03947368421052633
279,1085.0275807722614,0.03947368421052633
280,1087.825059101655,0.03947368421052633
281,1090.622537431048,0.03947368421052633
282,1093.4200157604414,0.046052631578947345
283,1093.4200157604414,0.03947368421052633
284,1096.2174940898344,0.046052631578947345
285,1099.014972419228,0.046052631578947345
286,1101.812450748621,0.046052631578947345
287,1104.6099290780144,0.046052631578947345
288,1104.6099290780144,0.052631578947368474
289,1107.4074074074074,0.052631578947368474
290,1110.2048857368004,0.052631578947368474
291,1113.0023640661939,0.052631578947368474
292,1115.799842395587,0.052631578947368474
293,1118.5973207249804,0.052631578947368474
294,1121.3947990543734,0.052631578947368474
295,1124.1922773837669,0.052631578947368474
296,1126.9897557131599,0.052631578947368474
297,1129.7872340425533,0.052631578947368474
298,1132.5847123719464,0.052631578947368474
299,1135.3821907013398,0.05921052631578949
300,1135.3821907013398,0.052631578947368474
301,1138.1796690307328,0.05921052631578949
302,1140.9771473601263,0.05921052631578949
303,1143.7746256895193,0.05921052631578949
304,1146.5721040189123,0.05921052631578949
305,1149.3695823483058,0.05921052631578949
306,1152.1670606776988,0.05921052631578949
307,1154.9645390070923,0.05921052631578949
308,1157.7620173364853,0.05921052631578949
309,1160.5594956658788,0.05921052631578949
310,1163.3569739952718,0.05921052631578949
311,1166.1544523246653,0.05921052631578949
312,1166.1544523246653,0.06578947368421051
313,1168.9519306540583,0.06578947368421051
314,1171.7494089834518,0.06578947368421051
315,1174.5468873128448,0.06578947368421051
316,1177.3443656422378,0.06578947368421051
317,1180.1418439716313,0.06578947368421051
318,1182.9393223010243,0.06578947368421051
319,1185.7368006304177,0.06578947368421051
320,1188.5342789598108,0.06578947368421051
321,1191.3317572892042,0.06578947368421051
322,1191.3317572892042,0.07236842105263153
323,1194.1292356185972,0.07236842105263153
324,1196.9267139479907,0.07236842105263153
325,1199.7241922773837,0.07236842105263153
326,1202.5216706067772,0.07236842105263153
327,1202.5216706067772,0.07894736842105265
328,1205.3191489361702,0.07894736842105265
329,1208.1166272655632,0.07894736842105265
330,1210.9141055949567,0.08552631578947367
331,1210.9141055949567,0.07894736842105265
332,1213.7115839243497,0.08552631578947367
333,1216.5090622537432,0.08552631578947367
334,1219.3065405831362,0.08552631578947367
335,1222.1040189125297,0.08552631578947367
336,1224.9014972419227,0.08552631578947367
337,1227.6989755713162,0.08552631578947367
338,1230.4964539007092,0.08552631578947367
339,1233.2939322301027,0.08552631578947367
340,1236.0914105594957,0.08552631578947367
341,1238.8888888888887,0.08552631578947367
342,1241.6863672182822,0.08552631578947367
343,1244.4838455476752,0.08552631578947367
344,1247.2813238770686,0.09210526315789469
345,1247.2813238770686,0.08552631578947367
346,1250.0788022064617,0.09210526315789469
347,1252.8762805358551,0.09210526315789469
348,1255.6737588652481,0.08552631578947367
349,1255.6737588652481,0.09210526315789469
350,1258.4712371946416,0.08552631578947367
351,1261.2687155240346,0.08552631578947367
352,1264.066193853428,0.08552631578947367
353,1266.8636721828211,0.07894736842105265
354,1266.8636721828211,0.08552631578947367
355,1269.6611505122141,0.07894736842105265
356,1272.4586288416076,0.07894736842105265
357,1275.2561071710006,0.07894736842105265
358,1278.053585500394,0.07894736842105265
359,1280.851063829787,0.07894736842105265
360,1283.6485421591806,0.07894736842105265
361,1286.4460204885736,0.07236842105263153
362,1286.4460204885736,0.07894736842105265
363,1289.243498817967,0.07236842105263153
364,1292.04097714736,0.07236842105263153
365,1294.8384554767536,0.07236842105263153
366,1294.8384554767536,0.06578947368421051
367,1297.6359338061466,0.06578947368421051
368,1300.4334121355396,0.06578947368421051
369,1303.230890464933,0.05921052631578949
370,1303.230890464933,0.06578947368421051
371,1306.028368794326,0.05921052631578949
372,1308.8258471237195,0.05921052631578949
373,1308.8258471237195,0.052631578947368474
374,1314.420803782506,0.052631578947368474
375,1317.218282111899,0.052631578947368474
376,1317.218282111899,0.046052631578947345
377,1320.0157604412925,0.046052631578947345
378,1322.8132387706855,0.046052631578947345
379,1325.610717100079,0.046052631578947345
380,1328.408195429472,0.046052631578947345
381,1331.205673758865,0.046052631578947345
382,1334.0031520882585,0.052631578947368474
383,1334.0031520882585,0.046052631578947345
384,1336.8006304176515,0.052631578947368474
385,1339.598108747045,0.052631578947368474
386,1342.395587076438,0.052631578947368474
387,1345.1930654058315,0.052631578947368474
388,1347.9905437352245,0.052631578947368474
389,1350.788022064618,0.052631578947368474
390,1353.585500394011,0.052631578947368474
391,1356.3829787234044,0.052631578947368474
392,1359.1804570527975,0.05921052631578949
393,1359.1804570527975,0.052631578947368474
394,1361.9779353821905,0.06578947368421051
395,1361.9779353821905,0.05921052631578949
396,1364.775413711584,0.06578947368421051
397,1367.572892040977,0.07236842105263153
398,1367.572892040977,0.06578947368421051
399,1370.3703703703704,0.07236842105263153
400,1370.3703703703704,0.07894736842105265
401,1373.1678486997635,0.07894736842105265
402,1375.965327029157,0.07894736842105265
403,1375.965327029157,0.07236842105263153
404,1378.76280535855,0.07236842105263153
405,1378.76280535855,0.06578947368421051
406,1378.76280535855,0.05921052631578949
407,1381.5602836879434,0.05921052631578949
408,1384.3577620173364,0.052631578947368474
409,1384.3577620173364,0.05921052631578949
410,1384.3577620173364,0.046052631578947345
411,1387.15524034673,0.046052631578947345
412,1389.952718676123,0.046052631578947345
413,1392.750197005516,0.046052631578947345
414,1395.5476753349094,0.046052631578947345
415,1395.5476753349094,0.052631578947368474
416,1398.3451536643024,0.052631578947368474
417,1401.1426319936959,0.05921052631578949
418,1401.1426319936959,0.052631578947368474
419,1403.940110323089,0.05921052631578949
420,1403.940110323089,0.06578947368421051
421,1406.7375886524824,0.06578947368421051
422,1409.5350669818754,0.06578947368421051
423,1412.3325453112689,0.06578947368421051
424,1415.1300236406619,0.06578947368421051
425,1415.1300236406619,0.05921052631578949
426,1417.9275019700553,0.05921052631578949
427,1420.7249802994484,0.05921052631578949
428,1423.5224586288418,0.05921052631578949
429,1426.3199369582348,0.05921052631578949
430,1426.3199369582348,0.06578947368421051
431,1429.1174152876279,0.07236842105263153
432,1429.1174152876279,0.06578947368421051
433,1431.9148936170213,0.07236842105263153
434,1431.9148936170213,0.07894736842105265
435,1434.7123719464144,0.07894736842105265
436,1434.7123719464144,0.08552631578947367
437,1437.5098502758078,0.09868421052631582
438,1437.5098502758078,0.09210526315789469
439,1437.5098502758078,0.08552631578947367
440,1440.3073286052008,0.09868421052631582
441,1440.3073286052008,0.10526315789473684
442,1443.1048069345943,0.10526315789473684
443,1445.9022852639873,0.10526315789473684
444,1445.9022852639873,0.125
445,1445.9022852639873,0.11184210526315785
446,1445.9022852639873,0.11842105263157898
447,1448.6997635933808,0.14473684210526316
448,1448.6997635933808,0.125
449,1448.6997635933808,0.13815789473684215
450,1448.6997635933808,0.13157894736842102
451,1451.4972419227738,0.14473684210526316
452,1451.4972419227738,0.1578947368421053
453,1451.4972419227738,0.15131578947368418
454,1451.4972419227738,0.17105263157894735
455,1451.4972419227738,0.16447368421052633
456,1454.2947202521673,0.17105263157894735
457,1454.2947202521673,0.1842105263157895
458,1454.2947202521673,0.1907894736842105
459,1454.2947202521673,0.17763157894736847
460,1457.0921985815603,0.22368421052631582
