,wavenumbers,absorbance
0,452.797478329393,0.052631578947368474
1,455.5949566587865,0.052631578947368474
2,455.5949566587865,0.046052631578947345
3,458.3924349881795,0.046052631578947345
4,461.189913317573,0.046052631578947345
5,463.987391646966,0.046052631578947345
6,466.78486997635946,0.046052631578947345
7,469.5823483057525,0.046052631578947345
8,472.37982663514595,0.046052631578947345
9,475.17730496453896,0.046052631578947345
10,477.97478329393243,0.046052631578947345
11,480.77226162332545,0.046052631578947345
12,483.56973995271846,0.046052631578947345
13,483.56973995271846,0.03947368421052633
14,486.36721828211193,0.03947368421052633
15,489.16469661150495,0.03289473684210531
16,489.16469661150495,0.03947368421052633
17,491.9621749408984,0.03289473684210531
18,494.75965327029144,0.03289473684210531
19,497.5571315996849,0.03289473684210531
20,500.3546099290779,0.03289473684210531
21,503.1520882584714,0.03289473684210531
22,505.9495665878644,0.03289473684210531
23,508.7470449172579,0.03289473684210531
24,511.5445232466509,0.03289473684210531
25,514.3420015760439,0.02631578947368418
26,514.3420015760439,0.03289473684210531
27,517.1394799054374,0.02631578947368418
28,519.9369582348304,0.02631578947368418
29,522.7344365642239,0.02631578947368418
30,525.5319148936169,0.02631578947368418
31,528.3293932230104,0.019736842105263164
32,528.3293932230104,0.02631578947368418
33,531.1268715524034,0.019736842105263164
34,533.9243498817968,0.019736842105263164
35,536.7218282111899,0.019736842105263164
36,539.5193065405833,0.019736842105263164
37,542.3167848699763,0.019736842105263164
38,545.1142631993694,0.019736842105263164
39,547.9117415287628,0.019736842105263164
40,550.7092198581558,0.019736842105263164
41,553.5066981875493,0.019736842105263164
42,556.3041765169423,0.019736842105263164
43,559.1016548463358,0.019736842105263164
44,561.8991331757288,0.019736842105263164
45,564.6966115051223,0.019736842105263164
46,567.4940898345153,0.019736842105263164
47,570.2915681639088,0.019736842105263164
48,573.0890464933018,0.019736842105263164
49,575.8865248226948,0.019736842105263164
50,578.6840031520883,0.019736842105263164
51,581.4814814814813,0.019736842105263164
52,584.2789598108748,0.019736842105263164
53,587.0764381402678,0.019736842105263164
54,589.8739164696613,0.019736842105263164
55,592.6713947990543,0.019736842105263164
56,595.4688731284477,0.019736842105263164
57,598.2663514578408,0.019736842105263164
58,601.0638297872342,0.019736842105263164
59,603.8613081166272,0.019736842105263164
60,606.6587864460207,0.019736842105263164
61,609.4562647754137,0.019736842105263164
62,612.2537431048067,0.019736842105263164
63,615.0512214342002,0.019736842105263164
64,617.8486997635932,0.019736842105263164
65,620.6461780929867,0.019736842105263164
66,623.4436564223797,0.019736842105263164
67,626.2411347517732,0.019736842105263164
68,629.0386130811662,0.019736842105263164
69,631.8360914105597,0.019736842105263164
70,634.6335697399527,0.019736842105263164
71,637.4310480693462,0.019736842105263164
72,640.2285263987392,0.019736842105263164
73,643.0260047281322,0.019736842105263164
74,645.8234830575257,0.019736842105263164
75,648.6209613869187,0.019736842105263164
76,651.4184397163122,0.019736842105263164
77,654.2159180457052,0.019736842105263164
78,657.0133963750986,0.019736842105263164
79,657.0133963750986,0.02631578947368418
80,659.8108747044917,0.02631578947368418
81,662.6083530338851,0.02631578947368418
82,665.4058313632781,0.02631578947368418
83,668.2033096926716,0.02631578947368418
84,668.2033096926716,0.019736842105263164
85,671.0007880220646,0.019736842105263164
86,673.7982663514576,0.019736842105263164
87,676.5957446808511,0.019736842105263164
88,679.3932230102441,0.019736842105263164
89,682.1907013396376,0.019736842105263164
90,684.9881796690306,0.019736842105263164
91,687.7856579984241,0.019736842105263164
92,690.5831363278171,0.019736842105263164
93,693.3806146572106,0.019736842105263164
94,696.1780929866036,0.019736842105263164
95,698.9755713159971,0.019736842105263164
96,701.7730496453901,0.019736842105263164
97,704.5705279747831,0.019736842105263164
98,707.3680063041766,0.02631578947368418
99,707.3680063041766,0.019736842105263164
100,710.1654846335696,0.02631578947368418
101,712.962962962963,0.02631578947368418
102,715.7604412923561,0.02631578947368418
103,718.5579196217495,0.03289473684210531
104,718.5579196217495,0.02631578947368418
105,721.3553979511425,0.03289473684210531
106,724.152876280536,0.03947368421052633
107,724.152876280536,0.03289473684210531
108,726.950354609929,0.03947368421052633
109,729.7478329393225,0.03947368421052633
110,732.5453112687155,0.046052631578947345
111,732.5453112687155,0.03947368421052633
112,732.5453112687155,0.052631578947368474
113,735.3427895981085,0.052631578947368474
114,738.140267927502,0.052631578947368474
115,738.140267927502,0.05921052631578949
116,738.140267927502,0.06578947368421051
117,740.937746256895,0.07236842105263153
118,740.937746256895,0.07894736842105265
119,740.937746256895,0.06578947368421051
120,743.7352245862885,0.09210526315789469
121,743.7352245862885,0.08552631578947367
122,743.7352245862885,0.07894736842105265
123,746.5327029156815,0.09210526315789469
124,746.5327029156815,0.09868421052631582
125,749.330181245075,0.09210526315789469
126,749.330181245075,0.09868421052631582
127,752.127659574468,0.09210526315789469
128,754.9251379038615,0.08552631578947367
129,754.9251379038615,0.09210526315789469
130,757.7226162332545,0.07894736842105265
131,757.7226162332545,0.08552631578947367
132,760.520094562648,0.07894736842105265
133,763.317572892041,0.07236842105263153
134,763.317572892041,0.07894736842105265
135,766.115051221434,0.07236842105263153
136,768.9125295508275,0.06578947368421051
137,768.9125295508275,0.07236842105263153
138,771.7100078802205,0.06578947368421051
139,774.507486209614,0.06578947368421051
140,777.304964539007,0.06578947368421051
141,780.1024428684004,0.06578947368421051
142,782.8999211977934,0.06578947368421051
143,785.6973995271869,0.06578947368421051
144,788.4948778565799,0.06578947368421051
145,791.2923561859734,0.06578947368421051
146,794.0898345153664,0.06578947368421051
147,796.8873128447594,0.06578947368421051
148,799.6847911741529,0.06578947368421051
149,802.4822695035459,0.06578947368421051
150,802.4822695035459,0.07236842105263153
151,805.2797478329394,0.07236842105263153
152,808.0772261623324,0.07236842105263153
153,810.8747044917259,0.07236842105263153
154,813.6721828211189,0.07236842105263153
155,816.4696611505124,0.07236842105263153
156,819.2671394799054,0.07236842105263153
157,822.0646178092989,0.07236842105263153
158,824.8620961386919,0.07236842105263153
159,824.8620961386919,0.07894736842105265
160,827.6595744680849,0.08552631578947367
161,827.6595744680849,0.07894736842105265
162,830.4570527974784,0.09868421052631582
163,830.4570527974784,0.09210526315789469
164,830.4570527974784,0.08552631578947367
165,833.2545311268714,0.09868421052631582
166,833.2545311268714,0.10526315789473684
167,836.0520094562648,0.10526315789473684
168,836.0520094562648,0.11184210526315785
169,838.8494877856579,0.11842105263157898
170,838.8494877856579,0.11184210526315785
171,841.6469661150513,0.11842105263157898
172,844.4444444444443,0.11842105263157898
173,844.4444444444443,0.125
174,847.2419227738378,0.125
175,850.0394011032308,0.11842105263157898
176,850.0394011032308,0.125
177,852.8368794326243,0.11842105263157898
178,852.8368794326243,0.11184210526315785
179,855.6343577620173,0.09868421052631582
180,855.6343577620173,0.11184210526315785
181,855.6343577620173,0.10526315789473684
182,858.4318360914103,0.09868421052631582
183,858.4318360914103,0.09210526315789469
184,861.2293144208038,0.09210526315789469
185,864.0267927501968,0.09210526315789469
186,866.8242710795903,0.09210526315789469
187,869.6217494089833,0.09868421052631582
188,869.6217494089833,0.09210526315789469
189,872.4192277383768,0.09868421052631582
190,875.2167060677698,0.10526315789473684
191,875.2167060677698,0.09868421052631582
192,878.0141843971633,0.10526315789473684
193,878.0141843971633,0.11184210526315785
194,880.8116627265563,0.11184210526315785
195,883.6091410559497,0.10526315789473684
196,883.6091410559497,0.11184210526315785
197,886.4066193853428,0.10526315789473684
198,889.2040977147362,0.10526315789473684
199,892.0015760441293,0.09868421052631582
200,892.0015760441293,0.10526315789473684
201,894.7990543735223,0.10526315789473684
202,897.5965327029157,0.11184210526315785
203,897.5965327029157,0.10526315789473684
204,900.3940110323088,0.11184210526315785
205,903.1914893617022,0.11842105263157898
206,903.1914893617022,0.11184210526315785
207,905.9889676910952,0.11842105263157898
208,908.7864460204887,0.11842105263157898
209,911.5839243498817,0.11184210526315785
210,911.5839243498817,0.11842105263157898
211,914.3814026792752,0.11184210526315785
212,917.1788810086682,0.10526315789473684
213,917.1788810086682,0.09868421052631582
214,917.1788810086682,0.11184210526315785
215,919.9763593380617,0.09210526315789469
216,919.9763593380617,0.09868421052631582
217,922.7738376674547,0.09210526315789469
218,925.5713159968477,0.09210526315789469
219,925.5713159968477,0.08552631578947367
220,928.3687943262412,0.08552631578947367
221,931.1662726556342,0.08552631578947367
222,933.9637509850277,0.08552631578947367
223,936.7612293144207,0.08552631578947367
224,939.5587076438142,0.08552631578947367
225,942.3561859732072,0.08552631578947367
226,942.3561859732072,0.09210526315789469
227,945.1536643026006,0.09210526315789469
228,947.9511426319937,0.09868421052631582
229,947.9511426319937,0.09210526315789469
230,950.7486209613871,0.09868421052631582
231,953.5460992907801,0.09868421052631582
232,953.5460992907801,0.10526315789473684
233,956.3435776201732,0.11184210526315785
234,956.3435776201732,0.10526315789473684
235,959.1410559495666,0.11184210526315785
236,961.9385342789597,0.11184210526315785
237,964.7360126083531,0.11184210526315785
238,967.5334909377461,0.11184210526315785
239,967.5334909377461,0.10526315789473684
240,970.3309692671396,0.10526315789473684
241,973.1284475965326,0.10526315789473684
242,973.1284475965326,0.11184210526315785
243,975.9259259259261,0.11184210526315785
244,975.9259259259261,0.11842105263157898
245,978.7234042553191,0.11842105263157898
246,981.5208825847126,0.11842105263157898
247,981.5208825847126,0.125
248,984.3183609141056,0.125
249,987.1158392434986,0.125
250,987.1158392434986,0.11842105263157898
251,989.9133175728921,0.11842105263157898
252,992.7107959022851,0.10526315789473684
253,992.7107959022851,0.11184210526315785
254,992.7107959022851,0.11842105263157898
255,995.5082742316786,0.09868421052631582
256,995.5082742316786,0.10526315789473684
257,998.3057525610716,0.09868421052631582
258,998.3057525610716,0.09210526315789469
259,1001.103230890465,0.09210526315789469
260,1003.9007092198581,0.09210526315789469
261,1003.9007092198581,0.09868421052631582
262,1006.6981875492515,0.09868421052631582
263,1006.6981875492515,0.10526315789473684
264,1009.4956658786446,0.11184210526315785
265,1009.4956658786446,0.10526315789473684
266,1009.4956658786446,0.11842105263157898
267,1012.293144208038,0.125
268,1012.293144208038,0.11842105263157898
269,1015.090622537431,0.125
270,1017.8881008668241,0.125
271,1020.6855791962175,0.125
272,1023.4830575256105,0.125
273,1023.4830575256105,0.13157894736842102
274,1026.280535855004,0.13157894736842102
275,1026.280535855004,0.13815789473684215
276,1029.078014184397,0.13815789473684215
277,1029.078014184397,0.14473684210526316
278,1031.8754925137905,0.14473684210526316
279,1034.6729708431835,0.1578947368421053
280,1034.6729708431835,0.15131578947368418
281,1034.6729708431835,0.14473684210526316
282,1037.470449172577,0.16447368421052633
283,1037.470449172577,0.1578947368421053
284,1040.26792750197,0.16447368421052633
285,1040.26792750197,0.17763157894736847
286,1040.26792750197,0.17105263157894735
287,1043.0654058313635,0.17763157894736847
288,1045.8628841607565,0.17763157894736847
289,1048.6603624901495,0.17763157894736847
290,1048.6603624901495,0.17105263157894735
291,1051.457840819543,0.16447368421052633
292,1051.457840819543,0.17105263157894735
293,1054.255319148936,0.16447368421052633
294,1054.255319148936,0.17105263157894735
295,1057.0527974783295,0.1842105263157895
296,1057.0527974783295,0.17105263157894735
297,1057.0527974783295,0.17763157894736847
298,1059.8502758077225,0.20394736842105265
299,1059.8502758077225,0.21052631578947367
300,1059.8502758077225,0.19736842105263153
301,1059.8502758077225,0.1907894736842105
302,1059.8502758077225,0.1842105263157895
303,1062.647754137116,0.2171052631578947
304,1062.647754137116,0.21052631578947367
305,1065.445232466509,0.2171052631578947
306,1065.445232466509,0.21052631578947367
307,1065.445232466509,0.20394736842105265
308,1065.445232466509,0.19736842105263153
309,1068.2427107959024,0.19736842105263153
310,1068.2427107959024,0.1907894736842105
311,1068.2427107959024,0.1842105263157895
312,1068.2427107959024,0.17763157894736847
313,1071.0401891252955,0.17763157894736847
314,1071.0401891252955,0.1578947368421053
315,1071.0401891252955,0.16447368421052633
316,1071.0401891252955,0.17105263157894735
317,1073.837667454689,0.13157894736842102
318,1073.837667454689,0.15131578947368418
319,1073.837667454689,0.14473684210526316
320,1073.837667454689,0.13815789473684215
321,1073.837667454689,0.1578947368421053
322,1076.635145784082,0.13157894736842102
323,1076.635145784082,0.125
324,1079.432624113475,0.125
325,1082.2301024428684,0.125
326,1085.0275807722614,0.13157894736842102
327,1085.0275807722614,0.13815789473684215
328,1085.0275807722614,0.125
329,1087.825059101655,0.13815789473684215
330,1087.825059101655,0.14473684210526316
331,1090.622537431048,0.15131578947368418
332,1090.622537431048,0.14473684210526316
333,1090.622537431048,0.1578947368421053
334,1093.4200157604414,0.1578947368421053
335,1093.4200157604414,0.16447368421052633
336,1096.2174940898344,0.16447368421052633
337,1099.014972419228,0.17105263157894735
338,1099.014972419228,0.16447368421052633
339,1101.812450748621,0.17105263157894735
340,1101.812450748621,0.17763157894736847
341,1104.6099290780144,0.17763157894736847
342,1104.6099290780144,0.1842105263157895
343,1104.6099290780144,0.1907894736842105
344,1104.6099290780144,0.19736842105263153
345,1107.4074074074074,0.19736842105263153
346,1107.4074074074074,0.20394736842105265
347,1107.4074074074074,0.21052631578947367
348,1110.2048857368004,0.21052631578947367
349,1110.2048857368004,0.22368421052631582
350,1110.2048857368004,0.2171052631578947
351,1113.0023640661939,0.22368421052631582
352,1113.0023640661939,0.23026315789473684
353,1113.0023640661939,0.23684210526315785
354,1115.799842395587,0.24342105263157898
355,1115.799842395587,0.25
356,1115.799842395587,0.23684210526315785
357,1118.5973207249804,0.26315789473684215
358,1118.5973207249804,0.256578947368421
359,1118.5973207249804,0.25
360,1121.3947990543734,0.26315789473684215
361,1121.3947990543734,0.26973684210526316
362,1121.3947990543734,0.2894736842105263
363,1121.3947990543734,0.2828947368421053
364,1121.3947990543734,0.2763157894736842
365,1124.1922773837669,0.3026315789473685
366,1124.1922773837669,0.2894736842105263
367,1124.1922773837669,0.3092105263157895
368,1124.1922773837669,0.29605263157894735
369,1126.9897557131599,0.3223684210526315
370,1126.9897557131599,0.3157894736842105
371,1126.9897557131599,0.32894736842105265
372,1126.9897557131599,0.3092105263157895
373,1129.7872340425533,0.3486842105263158
374,1129.7872340425533,0.3355263157894737
375,1129.7872340425533,0.375
376,1129.7872340425533,0.32894736842105265
377,1129.7872340425533,0.368421052631579
378,1129.7872340425533,0.3421052631578947
379,1129.7872340425533,0.35526315789473684
380,1129.7872340425533,0.36184210526315785
381,1129.7872340425533,0.381578947368421
382,1132.5847123719464,0.381578947368421
383,1132.5847123719464,0.4078947368421053
384,1132.5847123719464,0.38815789473684215
385,1132.5847123719464,0.39473684210526316
386,1132.5847123719464,0.4013157894736842
387,1135.3821907013398,0.4605263157894737
388,1135.3821907013398,0.4473684210526315
389,1135.3821907013398,0.4407894736842105
390,1135.3821907013398,0.4276315789473685
391,1135.3821907013398,0.42105263157894735
392,1135.3821907013398,0.4144736842105263
393,1135.3821907013398,0.4078947368421053
394,1135.3821907013398,0.45394736842105265
395,1135.3821907013398,0.4342105263157895
396,1138.1796690307328,0.4605263157894737
397,1138.1796690307328,0.4671052631578947
398,1138.1796690307328,0.4736842105263158
399,1138.1796690307328,0.48026315789473684
400,1138.1796690307328,0.48684210526315785
401,1140.9771473601263,0.5328947368421053
402,1140.9771473601263,0.5
403,1140.9771473601263,0.493421052631579
404,1140.9771473601263,0.506578947368421
405,1140.9771473601263,0.48684210526315785
406,1140.9771473601263,0.513157894736842
407,1140.9771473601263,0.5263157894736843
408,1140.9771473601263,0.5197368421052632
409,1143.7746256895193,0.5394736842105263
410,1143.7746256895193,0.5328947368421053
411,1143.7746256895193,0.5460526315789473
412,1143.7746256895193,0.5526315789473684
413,1146.5721040189123,0.5657894736842105
414,1146.5721040189123,0.5526315789473684
415,1146.5721040189123,0.5592105263157895
416,1149.3695823483058,0.5657894736842105
417,1149.3695823483058,0.5723684210526316
418,1152.1670606776988,0.5592105263157895
419,1152.1670606776988,0.5723684210526316
420,1152.1670606776988,0.5657894736842105
421,1154.9645390070923,0.5592105263157895
422,1154.9645390070923,0.5526315789473684
423,1157.7620173364853,0.5460526315789473
424,1157.7620173364853,0.5526315789473684
425,1157.7620173364853,0.5394736842105263
426,1160.5594956658788,0.5328947368421053
427,1160.5594956658788,0.5263157894736843
428,1160.5594956658788,0.5197368421052632
429,1160.5594956658788,0.5394736842105263
430,1160.5594956658788,0.513157894736842
431,1163.3569739952718,0.5
432,1163.3569739952718,0.513157894736842
433,1163.3569739952718,0.506578947368421
434,1166.1544523246653,0.5
435,1168.9519306540583,0.5
436,1171.7494089834518,0.5
437,1171.7494089834518,0.506578947368421
438,1174.5468873128448,0.506578947368421
439,1174.5468873128448,0.5
440,1177.3443656422378,0.493421052631579
441,1177.3443656422378,0.48684210526315785
442,1177.3443656422378,0.48026315789473684
443,1177.3443656422378,0.5
444,1180.1418439716313,0.48026315789473684
445,1180.1418439716313,0.4736842105263158
446,1182.9393223010243,0.4671052631578947
447,1182.9393223010243,0.4736842105263158
448,1185.7368006304177,0.4671052631578947
449,1185.7368006304177,0.4605263157894737
450,1185.7368006304177,0.4473684210526315
451,1185.7368006304177,0.45394736842105265
452,1188.5342789598108,0.4342105263157895
453,1188.5342789598108,0.4407894736842105
454,1188.5342789598108,0.4473684210526315
455,1191.3317572892042,0.4013157894736842
456,1191.3317572892042,0.4078947368421053
457,1191.3317572892042,0.4144736842105263
458,1191.3317572892042,0.39473684210526316
459,1191.3317572892042,0.42105263157894735
460,1191.3317572892042,0.4342105263157895
461,1191.3317572892042,0.4276315789473685
462,1194.1292356185972,0.368421052631579
463,1194.1292356185972,0.381578947368421
464,1194.1292356185972,0.38815789473684215
465,1194.1292356185972,0.375
466,1194.1292356185972,0.39473684210526316
467,1196.9267139479907,0.3421052631578947
468,1196.9267139479907,0.3223684210526315
469,1196.9267139479907,0.35526315789473684
470,1196.9267139479907,0.36184210526315785
471,1196.9267139479907,0.3355263157894737
472,1196.9267139479907,0.32894736842105265
