,wavenumbers,absorbance
0,452.797478329393,0.03947368421052633
1,455.5949566587865,0.03947368421052633
2,458.3924349881795,0.03947368421052633
3,458.3924349881795,0.046052631578947345
4,461.189913317573,0.046052631578947345
5,463.987391646966,0.046052631578947345
6,466.78486997635946,0.046052631578947345
7,469.5823483057525,0.046052631578947345
8,469.5823483057525,0.03947368421052633
9,472.37982663514595,0.03947368421052633
10,475.17730496453896,0.03947368421052633
11,477.97478329393243,0.03289473684210531
12,477.97478329393243,0.03947368421052633
13,480.77226162332545,0.03289473684210531
14,483.56973995271846,0.02631578947368418
15,483.56973995271846,0.03289473684210531
16,486.36721828211193,0.02631578947368418
17,489.16469661150495,0.02631578947368418
18,491.9621749408984,0.02631578947368418
19,494.75965327029144,0.02631578947368418
20,497.5571315996849,0.02631578947368418
21,500.3546099290779,0.02631578947368418
22,503.1520882584714,0.02631578947368418
23,505.9495665878644,0.02631578947368418
24,508.7470449172579,0.02631578947368418
25,511.5445232466509,0.02631578947368418
26,514.3420015760439,0.03289473684210531
27,514.3420015760439,0.02631578947368418
28,517.1394799054374,0.03289473684210531
29,519.9369582348304,0.03289473684210531
30,522.7344365642239,0.03289473684210531
31,525.5319148936169,0.03289473684210531
32,528.3293932230104,0.02631578947368418
33,528.3293932230104,0.03289473684210531
34,531.1268715524034,0.02631578947368418
35,531.1268715524034,0.03289473684210531
36,533.9243498817968,0.03289473684210531
37,536.7218282111899,0.03289473684210531
38,539.5193065405833,0.03289473684210531
39,539.5193065405833,0.03947368421052633
40,542.3167848699763,0.03289473684210531
41,545.1142631993694,0.03289473684210531
42,547.9117415287628,0.03289473684210531
43,547.9117415287628,0.02631578947368418
44,550.7092198581558,0.02631578947368418
45,553.5066981875493,0.02631578947368418
46,556.3041765169423,0.02631578947368418
47,559.1016548463358,0.019736842105263164
48,559.1016548463358,0.02631578947368418
49,561.8991331757288,0.019736842105263164
50,564.6966115051223,0.019736842105263164
51,564.6966115051223,0.02631578947368418
52,567.4940898345153,0.019736842105263164
53,570.2915681639088,0.019736842105263164
54,573.0890464933018,0.019736842105263164
55,575.8865248226948,0.019736842105263164
56,575.8865248226948,0.02631578947368418
57,575.8865248226948,0.03289473684210531
58,578.6840031520883,0.03289473684210531
59,581.4814814814813,0.03289473684210531
60,584.2789598108748,0.03289473684210531
61,587.0764381402678,0.03289473684210531
62,587.0764381402678,0.019736842105263164
63,587.0764381402678,0.02631578947368418
64,589.8739164696613,0.019736842105263164
65,592.6713947990543,0.019736842105263164
66,595.4688731284477,0.019736842105263164
67,598.2663514578408,0.019736842105263164
68,598.2663514578408,0.02631578947368418
69,601.0638297872342,0.02631578947368418
70,601.0638297872342,0.019736842105263164
71,603.8613081166272,0.019736842105263164
72,606.6587864460207,0.019736842105263164
73,609.4562647754137,0.019736842105263164
74,609.4562647754137,0.02631578947368418
75,612.2537431048067,0.03289473684210531
76,612.2537431048067,0.02631578947368418
77,615.0512214342002,0.03289473684210531
78,615.0512214342002,0.03947368421052633
79,617.8486997635932,0.03947368421052633
80,620.6461780929867,0.046052631578947345
81,620.6461780929867,0.03947368421052633
82,623.4436564223797,0.03947368421052633
83,626.2411347517732,0.03289473684210531
84,626.2411347517732,0.03947368421052633
85,629.0386130811662,0.03289473684210531
86,629.0386130811662,0.03947368421052633
87,631.8360914105597,0.03947368421052633
88,631.8360914105597,0.03289473684210531
89,634.6335697399527,0.03947368421052633
90,634.6335697399527,0.03289473684210531
91,637.4310480693462,0.03947368421052633
92,637.4310480693462,0.03289473684210531
93,640.2285263987392,0.03289473684210531
94,643.0260047281322,0.03289473684210531
95,643.0260047281322,0.02631578947368418
96,645.8234830575257,0.02631578947368418
97,648.6209613869187,0.02631578947368418
98,651.4184397163122,0.019736842105263164
99,651.4184397163122,0.02631578947368418
100,654.2159180457052,0.019736842105263164
101,654.2159180457052,0.02631578947368418
102,657.0133963750986,0.019736842105263164
103,659.8108747044917,0.02631578947368418
104,659.8108747044917,0.019736842105263164
105,662.6083530338851,0.02631578947368418
106,665.4058313632781,0.02631578947368418
107,668.2033096926716,0.03947368421052633
108,668.2033096926716,0.02631578947368418
109,668.2033096926716,0.03289473684210531
110,671.0007880220646,0.046052631578947345
111,671.0007880220646,0.03947368421052633
112,673.7982663514576,0.03947368421052633
113,673.7982663514576,0.046052631578947345
114,676.5957446808511,0.046052631578947345
115,676.5957446808511,0.03947368421052633
116,679.3932230102441,0.02631578947368418
117,679.3932230102441,0.046052631578947345
118,679.3932230102441,0.03289473684210531
119,679.3932230102441,0.03947368421052633
120,682.1907013396376,0.02631578947368418
121,684.9881796690306,0.019736842105263164
122,684.9881796690306,0.02631578947368418
123,687.7856579984241,0.019736842105263164
124,690.5831363278171,0.019736842105263164
125,693.3806146572106,0.019736842105263164
126,693.3806146572106,0.02631578947368418
127,696.1780929866036,0.019736842105263164
128,698.9755713159971,0.019736842105263164
129,701.7730496453901,0.019736842105263164
130,704.5705279747831,0.019736842105263164
131,707.3680063041766,0.019736842105263164
132,707.3680063041766,0.013157894736842146
133,710.1654846335696,0.013157894736842146
134,710.1654846335696,0.019736842105263164
135,712.962962962963,0.02631578947368418
136,712.962962962963,0.019736842105263164
137,715.7604412923561,0.02631578947368418
138,715.7604412923561,0.019736842105263164
139,718.5579196217495,0.019736842105263164
140,721.3553979511425,0.019736842105263164
141,724.152876280536,0.019736842105263164
142,724.152876280536,0.02631578947368418
143,726.950354609929,0.02631578947368418
144,729.7478329393225,0.02631578947368418
145,729.7478329393225,0.03289473684210531
146,732.5453112687155,0.02631578947368418
147,732.5453112687155,0.03289473684210531
148,735.3427895981085,0.02631578947368418
149,738.140267927502,0.02631578947368418
150,740.937746256895,0.02631578947368418
151,743.7352245862885,0.02631578947368418
152,746.5327029156815,0.02631578947368418
153,749.330181245075,0.02631578947368418
154,749.330181245075,0.019736842105263164
155,752.127659574468,0.02631578947368418
156,752.127659574468,0.019736842105263164
157,754.9251379038615,0.02631578947368418
158,757.7226162332545,0.02631578947368418
159,760.520094562648,0.02631578947368418
160,763.317572892041,0.02631578947368418
161,766.115051221434,0.02631578947368418
162,768.9125295508275,0.02631578947368418
163,771.7100078802205,0.02631578947368418
164,774.507486209614,0.02631578947368418
165,777.304964539007,0.03289473684210531
166,777.304964539007,0.02631578947368418
167,782.8999211977934,0.03947368421052633
168,782.8999211977934,0.03289473684210531
169,785.6973995271869,0.046052631578947345
170,785.6973995271869,0.03947368421052633
171,788.4948778565799,0.052631578947368474
172,788.4948778565799,0.06578947368421051
173,788.4948778565799,0.05921052631578949
174,788.4948778565799,0.046052631578947345
175,791.2923561859734,0.07236842105263153
176,791.2923561859734,0.06578947368421051
177,794.0898345153664,0.07236842105263153
178,794.0898345153664,0.07894736842105265
179,796.8873128447594,0.07894736842105265
180,796.8873128447594,0.09210526315789469
181,796.8873128447594,0.09868421052631582
182,796.8873128447594,0.10526315789473684
183,796.8873128447594,0.08552631578947367
184,799.6847911741529,0.125
185,799.6847911741529,0.11184210526315785
186,799.6847911741529,0.23026315789473684
187,799.6847911741529,0.23684210526315785
188,799.6847911741529,0.11842105263157898
189,799.6847911741529,0.10526315789473684
190,799.6847911741529,0.13157894736842102
191,799.6847911741529,0.22368421052631582
192,799.6847911741529,0.20394736842105265
193,799.6847911741529,0.17105263157894735
194,799.6847911741529,0.19736842105263153
195,799.6847911741529,0.21052631578947367
196,799.6847911741529,0.13815789473684215
197,799.6847911741529,0.2171052631578947
198,799.6847911741529,0.1578947368421053
199,799.6847911741529,0.14473684210526316
200,799.6847911741529,0.17763157894736847
201,799.6847911741529,0.1907894736842105
202,799.6847911741529,0.16447368421052633
203,799.6847911741529,0.15131578947368418
204,799.6847911741529,0.1842105263157895
205,802.4822695035459,0.26973684210526316
206,802.4822695035459,0.3223684210526315
207,802.4822695035459,0.368421052631579
208,802.4822695035459,0.381578947368421
209,802.4822695035459,0.26315789473684215
210,802.4822695035459,0.36184210526315785
211,802.4822695035459,0.3157894736842105
212,802.4822695035459,0.35526315789473684
213,802.4822695035459,0.29605263157894735
214,802.4822695035459,0.3092105263157895
215,802.4822695035459,0.256578947368421
216,802.4822695035459,0.24342105263157898
217,802.4822695035459,0.375
218,802.4822695035459,0.25
219,802.4822695035459,0.23684210526315785
220,802.4822695035459,0.2894736842105263
221,802.4822695035459,0.3026315789473685
222,802.4822695035459,0.2763157894736842
223,802.4822695035459,0.32894736842105265
224,802.4822695035459,0.3486842105263158
225,802.4822695035459,0.38815789473684215
226,802.4822695035459,0.2828947368421053
227,802.4822695035459,0.3421052631578947
228,802.4822695035459,0.3355263157894737
229,805.2797478329394,0.4276315789473685
230,805.2797478329394,0.4342105263157895
231,805.2797478329394,0.4144736842105263
232,805.2797478329394,0.5
233,805.2797478329394,0.506578947368421
234,805.2797478329394,0.38815789473684215
235,805.2797478329394,0.42105263157894735
236,805.2797478329394,0.4671052631578947
237,805.2797478329394,0.48026315789473684
238,805.2797478329394,0.4407894736842105
239,805.2797478329394,0.4078947368421053
240,805.2797478329394,0.4473684210526315
241,805.2797478329394,0.4736842105263158
242,805.2797478329394,0.45394736842105265
243,805.2797478329394,0.493421052631579
244,805.2797478329394,0.48684210526315785
245,805.2797478329394,0.4605263157894737
246,805.2797478329394,0.4013157894736842
247,805.2797478329394,0.39473684210526316
248,808.0772261623324,0.4736842105263158
249,808.0772261623324,0.4473684210526315
250,808.0772261623324,0.45394736842105265
251,808.0772261623324,0.38815789473684215
252,808.0772261623324,0.42105263157894735
253,808.0772261623324,0.4671052631578947
254,808.0772261623324,0.48026315789473684
255,808.0772261623324,0.4013157894736842
256,808.0772261623324,0.4144736842105263
257,808.0772261623324,0.4605263157894737
258,808.0772261623324,0.4407894736842105
259,808.0772261623324,0.381578947368421
260,808.0772261623324,0.4078947368421053
261,808.0772261623324,0.4276315789473685
262,808.0772261623324,0.48684210526315785
263,808.0772261623324,0.4342105263157895
264,808.0772261623324,0.493421052631579
265,808.0772261623324,0.375
266,808.0772261623324,0.39473684210526316
267,810.8747044917259,0.256578947368421
268,810.8747044917259,0.2171052631578947
269,810.8747044917259,0.17763157894736847
270,810.8747044917259,0.16447368421052633
271,810.8747044917259,0.375
272,810.8747044917259,0.29605263157894735
273,810.8747044917259,0.26315789473684215
274,810.8747044917259,0.2894736842105263
275,810.8747044917259,0.26973684210526316
276,810.8747044917259,0.2763157894736842
277,810.8747044917259,0.2828947368421053
278,810.8747044917259,0.3026315789473685
279,810.8747044917259,0.17105263157894735
280,810.8747044917259,0.1907894736842105
281,810.8747044917259,0.25
282,810.8747044917259,0.3223684210526315
283,810.8747044917259,0.3157894736842105
284,810.8747044917259,0.36184210526315785
285,810.8747044917259,0.19736842105263153
286,810.8747044917259,0.1842105263157895
287,810.8747044917259,0.3092105263157895
288,810.8747044917259,0.35526315789473684
289,810.8747044917259,0.23026315789473684
290,810.8747044917259,0.24342105263157898
291,810.8747044917259,0.20394736842105265
292,810.8747044917259,0.32894736842105265
293,810.8747044917259,0.22368421052631582
294,810.8747044917259,0.3486842105263158
295,810.8747044917259,0.3421052631578947
296,810.8747044917259,0.368421052631579
297,810.8747044917259,0.21052631578947367
298,810.8747044917259,0.3355263157894737
299,810.8747044917259,0.23684210526315785
300,813.6721828211189,0.13157894736842102
301,813.6721828211189,0.15131578947368418
302,813.6721828211189,0.1578947368421053
303,813.6721828211189,0.13815789473684215
304,813.6721828211189,0.16447368421052633
305,813.6721828211189,0.125
306,813.6721828211189,0.14473684210526316
307,813.6721828211189,0.11184210526315785
308,813.6721828211189,0.11842105263157898
309,816.4696611505124,0.11184210526315785
310,816.4696611505124,0.10526315789473684
311,816.4696611505124,0.09868421052631582
312,816.4696611505124,0.08552631578947367
313,816.4696611505124,0.07894736842105265
314,816.4696611505124,0.09210526315789469
315,816.4696611505124,0.07236842105263153
316,819.2671394799054,0.05921052631578949
317,819.2671394799054,0.052631578947368474
318,819.2671394799054,0.046052631578947345
319,819.2671394799054,0.06578947368421051
320,819.2671394799054,0.07236842105263153
321,822.0646178092989,0.03947368421052633
322,822.0646178092989,0.046052631578947345
323,824.8620961386919,0.03947368421052633
324,824.8620961386919,0.03289473684210531
325,827.6595744680849,0.03289473684210531
326,827.6595744680849,0.03947368421052633
327,830.4570527974784,0.03947368421052633
328,830.4570527974784,0.046052631578947345
329,833.2545311268714,0.052631578947368474
330,833.2545311268714,0.05921052631578949
331,833.2545311268714,0.046052631578947345
332,836.0520094562648,0.09210526315789469
333,836.0520094562648,0.09868421052631582
334,836.0520094562648,0.06578947368421051
335,836.0520094562648,0.07236842105263153
336,836.0520094562648,0.05921052631578949
337,836.0520094562648,0.07894736842105265
338,836.0520094562648,0.08552631578947367
339,838.8494877856579,0.09868421052631582
340,838.8494877856579,0.10526315789473684
341,841.6469661150513,0.052631578947368474
342,841.6469661150513,0.06578947368421051
343,841.6469661150513,0.05921052631578949
344,841.6469661150513,0.07894736842105265
345,841.6469661150513,0.09210526315789469
346,841.6469661150513,0.09868421052631582
347,841.6469661150513,0.07236842105263153
348,841.6469661150513,0.08552631578947367
349,841.6469661150513,0.10526315789473684
350,844.4444444444443,0.03947368421052633
351,844.4444444444443,0.052631578947368474
352,844.4444444444443,0.046052631578947345
353,847.2419227738378,0.03947368421052633
354,850.0394011032308,0.03289473684210531
355,850.0394011032308,0.03947368421052633
356,852.8368794326243,0.046052631578947345
357,852.8368794326243,0.03947368421052633
358,855.6343577620173,0.052631578947368474
359,855.6343577620173,0.046052631578947345
360,858.4318360914103,0.05921052631578949
361,858.4318360914103,0.052631578947368474
362,861.2293144208038,0.05921052631578949
363,861.2293144208038,0.06578947368421051
364,861.2293144208038,0.052631578947368474
365,864.0267927501968,0.046052631578947345
366,864.0267927501968,0.03947368421052633
367,864.0267927501968,0.052631578947368474
368,866.8242710795903,0.019736842105263164
369,866.8242710795903,0.03947368421052633
370,866.8242710795903,0.02631578947368418
371,866.8242710795903,0.03289473684210531
372,869.6217494089833,0.019736842105263164
373,872.4192277383768,0.019736842105263164
374,875.2167060677698,0.019736842105263164
375,878.0141843971633,0.019736842105263164
376,880.8116627265563,0.03289473684210531
377,880.8116627265563,0.02631578947368418
378,880.8116627265563,0.019736842105263164
379,883.6091410559497,0.03289473684210531
380,883.6091410559497,0.03947368421052633
381,883.6091410559497,0.046052631578947345
382,886.4066193853428,0.052631578947368474
383,886.4066193853428,0.046052631578947345
384,886.4066193853428,0.05921052631578949
385,889.2040977147362,0.05921052631578949
386,889.2040977147362,0.052631578947368474
387,892.0015760441293,0.052631578947368474
388,894.7990543735223,0.052631578947368474
389,894.7990543735223,0.046052631578947345
390,897.5965327029157,0.03947368421052633
391,897.5965327029157,0.02631578947368418
392,897.5965327029157,0.046052631578947345
393,897.5965327029157,0.03289473684210531
394,900.3940110323088,0.02631578947368418
395,900.3940110323088,0.019736842105263164
396,903.1914893617022,0.019736842105263164
397,905.9889676910952,0.019736842105263164
398,905.9889676910952,0.02631578947368418
399,908.7864460204887,0.046052631578947345
400,908.7864460204887,0.02631578947368418
401,908.7864460204887,0.03289473684210531
402,908.7864460204887,0.03947368421052633
403,911.5839243498817,0.08552631578947367
404,911.5839243498817,0.05921052631578949
405,911.5839243498817,0.052631578947368474
406,911.5839243498817,0.07894736842105265
407,911.5839243498817,0.07236842105263153
408,911.5839243498817,0.046052631578947345
409,911.5839243498817,0.06578947368421051
410,914.3814026792752,0.05921052631578949
411,914.3814026792752,0.07894736842105265
412,914.3814026792752,0.08552631578947367
413,914.3814026792752,0.052631578947368474
414,914.3814026792752,0.06578947368421051
415,914.3814026792752,0.07236842105263153
416,917.1788810086682,0.046052631578947345
417,917.1788810086682,0.03947368421052633
418,917.1788810086682,0.03289473684210531
419,917.1788810086682,0.02631578947368418
420,917.1788810086682,0.052631578947368474
421,919.9763593380617,0.03289473684210531
422,919.9763593380617,0.02631578947368418
423,922.7738376674547,0.052631578947368474
424,922.7738376674547,0.03947368421052633
425,922.7738376674547,0.046052631578947345
426,922.7738376674547,0.03289473684210531
427,925.5713159968477,0.052631578947368474
428,925.5713159968477,0.05921052631578949
429,928.3687943262412,0.07236842105263153
430,928.3687943262412,0.06578947368421051
431,928.3687943262412,0.05921052631578949
432,931.1662726556342,0.07236842105263153
433,931.1662726556342,0.07894736842105265
434,931.1662726556342,0.08552631578947367
435,933.9637509850277,0.09210526315789469
436,933.9637509850277,0.08552631578947367
437,936.7612293144207,0.10526315789473684
438,936.7612293144207,0.13815789473684215
439,936.7612293144207,0.14473684210526316
440,936.7612293144207,0.09210526315789469
441,936.7612293144207,0.125
442,936.7612293144207,0.11842105263157898
443,936.7612293144207,0.13157894736842102
444,936.7612293144207,0.1578947368421053
445,936.7612293144207,0.15131578947368418
446,936.7612293144207,0.09868421052631582
447,936.7612293144207,0.11184210526315785
448,939.5587076438142,0.1578947368421053
449,939.5587076438142,0.16447368421052633
450,942.3561859732072,0.15131578947368418
451,942.3561859732072,0.14473684210526316
452,942.3561859732072,0.13815789473684215
453,942.3561859732072,0.125
454,942.3561859732072,0.1578947368421053
455,942.3561859732072,0.13157894736842102
456,942.3561859732072,0.16447368421052633
457,945.1536643026006,0.125
458,947.9511426319937,0.14473684210526316
459,947.9511426319937,0.13157894736842102
460,947.9511426319937,0.125
461,947.9511426319937,0.15131578947368418
462,947.9511426319937,0.13815789473684215
463,947.9511426319937,0.17105263157894735
464,947.9511426319937,0.16447368421052633
465,947.9511426319937,0.1578947368421053
466,950.7486209613871,0.1842105263157895
467,950.7486209613871,0.17763157894736847
468,950.7486209613871,0.1907894736842105
469,950.7486209613871,0.20394736842105265
