,wavenumbers,absorbance
0,452.797478329393,0.05921052631578949
1,455.5949566587865,0.05921052631578949
2,458.3924349881795,0.05921052631578949
3,461.189913317573,0.05921052631578949
4,463.987391646966,0.05921052631578949
5,466.78486997635946,0.05921052631578949
6,469.5823483057525,0.05921052631578949
7,472.37982663514595,0.05921052631578949
8,475.17730496453896,0.05921052631578949
9,477.97478329393243,0.05921052631578949
10,480.77226162332545,0.05921052631578949
11,483.56973995271846,0.05921052631578949
12,483.56973995271846,0.052631578947368474
13,486.36721828211193,0.046052631578947345
14,486.36721828211193,0.052631578947368474
15,489.16469661150495,0.03947368421052633
16,489.16469661150495,0.046052631578947345
17,491.9621749408984,0.03947368421052633
18,494.75965327029144,0.03947368421052633
19,497.5571315996849,0.03947368421052633
20,500.3546099290779,0.03947368421052633
21,503.1520882584714,0.03947368421052633
22,505.9495665878644,0.03289473684210531
23,505.9495665878644,0.03947368421052633
24,508.7470449172579,0.03289473684210531
25,511.5445232466509,0.03289473684210531
26,514.3420015760439,0.03289473684210531
27,514.3420015760439,0.02631578947368418
28,517.1394799054374,0.02631578947368418
29,519.9369582348304,0.02631578947368418
30,522.7344365642239,0.02631578947368418
31,525.5319148936169,0.02631578947368418
32,528.3293932230104,0.02631578947368418
33,531.1268715524034,0.02631578947368418
34,533.9243498817968,0.02631578947368418
35,536.7218282111899,0.02631578947368418
36,539.5193065405833,0.02631578947368418
37,542.3167848699763,0.02631578947368418
38,545.1142631993694,0.02631578947368418
39,547.9117415287628,0.02631578947368418
40,550.7092198581558,0.02631578947368418
41,553.5066981875493,0.02631578947368418
42,556.3041765169423,0.02631578947368418
43,559.1016548463358,0.02631578947368418
44,561.8991331757288,0.02631578947368418
45,564.6966115051223,0.02631578947368418
46,564.6966115051223,0.03289473684210531
47,567.4940898345153,0.03289473684210531
48,570.2915681639088,0.03289473684210531
49,573.0890464933018,0.03289473684210531
50,575.8865248226948,0.03289473684210531
51,578.6840031520883,0.03289473684210531
52,581.4814814814813,0.03289473684210531
53,584.2789598108748,0.03289473684210531
54,587.0764381402678,0.03289473684210531
55,589.8739164696613,0.02631578947368418
56,589.8739164696613,0.03289473684210531
57,592.6713947990543,0.02631578947368418
58,595.4688731284477,0.02631578947368418
59,598.2663514578408,0.02631578947368418
60,601.0638297872342,0.02631578947368418
61,603.8613081166272,0.02631578947368418
62,606.6587864460207,0.02631578947368418
63,609.4562647754137,0.02631578947368418
64,612.2537431048067,0.02631578947368418
65,615.0512214342002,0.02631578947368418
66,617.8486997635932,0.02631578947368418
67,620.6461780929867,0.02631578947368418
68,623.4436564223797,0.02631578947368418
69,626.2411347517732,0.02631578947368418
70,629.0386130811662,0.02631578947368418
71,631.8360914105597,0.02631578947368418
72,634.6335697399527,0.02631578947368418
73,637.4310480693462,0.02631578947368418
74,640.2285263987392,0.02631578947368418
75,643.0260047281322,0.02631578947368418
76,645.8234830575257,0.02631578947368418
77,648.6209613869187,0.02631578947368418
78,651.4184397163122,0.02631578947368418
79,654.2159180457052,0.02631578947368418
80,657.0133963750986,0.02631578947368418
81,659.8108747044917,0.02631578947368418
82,662.6083530338851,0.02631578947368418
83,665.4058313632781,0.02631578947368418
84,668.2033096926716,0.02631578947368418
85,671.0007880220646,0.02631578947368418
86,673.7982663514576,0.02631578947368418
87,676.5957446808511,0.02631578947368418
88,679.3932230102441,0.02631578947368418
89,682.1907013396376,0.02631578947368418
90,684.9881796690306,0.02631578947368418
91,687.7856579984241,0.02631578947368418
92,690.5831363278171,0.02631578947368418
93,690.5831363278171,0.03289473684210531
94,693.3806146572106,0.02631578947368418
95,693.3806146572106,0.03289473684210531
96,696.1780929866036,0.03289473684210531
97,696.1780929866036,0.02631578947368418
98,698.9755713159971,0.03289473684210531
99,701.7730496453901,0.03289473684210531
100,704.5705279747831,0.03289473684210531
101,707.3680063041766,0.03289473684210531
102,710.1654846335696,0.03289473684210531
103,712.962962962963,0.03289473684210531
104,715.7604412923561,0.03289473684210531
105,718.5579196217495,0.03289473684210531
106,721.3553979511425,0.03289473684210531
107,724.152876280536,0.03289473684210531
108,726.950354609929,0.03289473684210531
109,726.950354609929,0.03947368421052633
110,729.7478329393225,0.03947368421052633
111,732.5453112687155,0.03947368421052633
112,735.3427895981085,0.03947368421052633
113,738.140267927502,0.046052631578947345
114,738.140267927502,0.052631578947368474
115,738.140267927502,0.03947368421052633
116,740.937746256895,0.052631578947368474
117,740.937746256895,0.05921052631578949
118,740.937746256895,0.06578947368421051
119,740.937746256895,0.07236842105263153
120,743.7352245862885,0.08552631578947367
121,743.7352245862885,0.07894736842105265
122,743.7352245862885,0.09210526315789469
123,743.7352245862885,0.07236842105263153
124,743.7352245862885,0.09868421052631582
125,746.5327029156815,0.09868421052631582
126,749.330181245075,0.08552631578947367
127,749.330181245075,0.09210526315789469
128,749.330181245075,0.09868421052631582
129,752.127659574468,0.08552631578947367
130,752.127659574468,0.07894736842105265
131,754.9251379038615,0.07236842105263153
132,754.9251379038615,0.06578947368421051
133,754.9251379038615,0.07894736842105265
134,757.7226162332545,0.06578947368421051
135,757.7226162332545,0.05921052631578949
136,760.520094562648,0.052631578947368474
137,760.520094562648,0.05921052631578949
138,763.317572892041,0.052631578947368474
139,766.115051221434,0.046052631578947345
140,766.115051221434,0.052631578947368474
141,768.9125295508275,0.046052631578947345
142,771.7100078802205,0.046052631578947345
143,774.507486209614,0.046052631578947345
144,777.304964539007,0.046052631578947345
145,780.1024428684004,0.046052631578947345
146,780.1024428684004,0.052631578947368474
147,782.8999211977934,0.052631578947368474
148,785.6973995271869,0.05921052631578949
149,785.6973995271869,0.052631578947368474
150,788.4948778565799,0.06578947368421051
151,788.4948778565799,0.05921052631578949
152,791.2923561859734,0.06578947368421051
153,794.0898345153664,0.07236842105263153
154,794.0898345153664,0.06578947368421051
155,796.8873128447594,0.07236842105263153
156,799.6847911741529,0.07236842105263153
157,802.4822695035459,0.07236842105263153
158,805.2797478329394,0.07236842105263153
159,808.0772261623324,0.06578947368421051
160,808.0772261623324,0.07236842105263153
161,810.8747044917259,0.06578947368421051
162,810.8747044917259,0.05921052631578949
163,813.6721828211189,0.05921052631578949
164,816.4696611505124,0.05921052631578949
165,819.2671394799054,0.05921052631578949
166,819.2671394799054,0.06578947368421051
167,822.0646178092989,0.06578947368421051
168,824.8620961386919,0.052631578947368474
169,824.8620961386919,0.06578947368421051
170,824.8620961386919,0.05921052631578949
171,827.6595744680849,0.052631578947368474
172,830.4570527974784,0.052631578947368474
173,830.4570527974784,0.06578947368421051
174,830.4570527974784,0.05921052631578949
175,833.2545311268714,0.07236842105263153
176,833.2545311268714,0.06578947368421051
177,833.2545311268714,0.07894736842105265
178,836.0520094562648,0.07894736842105265
179,836.0520094562648,0.08552631578947367
180,838.8494877856579,0.08552631578947367
181,841.6469661150513,0.07894736842105265
182,841.6469661150513,0.08552631578947367
183,844.4444444444443,0.07894736842105265
184,847.2419227738378,0.07236842105263153
185,847.2419227738378,0.07894736842105265
186,850.0394011032308,0.06578947368421051
187,850.0394011032308,0.07236842105263153
188,852.8368794326243,0.06578947368421051
189,855.6343577620173,0.05921052631578949
190,855.6343577620173,0.06578947368421051
191,858.4318360914103,0.05921052631578949
192,861.2293144208038,0.052631578947368474
193,861.2293144208038,0.05921052631578949
194,864.0267927501968,0.052631578947368474
195,866.8242710795903,0.052631578947368474
196,869.6217494089833,0.046052631578947345
197,869.6217494089833,0.052631578947368474
198,872.4192277383768,0.046052631578947345
199,875.2167060677698,0.052631578947368474
200,875.2167060677698,0.046052631578947345
201,878.0141843971633,0.052631578947368474
202,880.8116627265563,0.052631578947368474
203,883.6091410559497,0.052631578947368474
204,886.4066193853428,0.052631578947368474
205,889.2040977147362,0.052631578947368474
206,892.0015760441293,0.052631578947368474
207,892.0015760441293,0.05921052631578949
208,894.7990543735223,0.05921052631578949
209,894.7990543735223,0.06578947368421051
210,897.5965327029157,0.06578947368421051
211,897.5965327029157,0.07236842105263153
212,900.3940110323088,0.07236842105263153
213,903.1914893617022,0.07236842105263153
214,903.1914893617022,0.07894736842105265
215,905.9889676910952,0.07894736842105265
216,908.7864460204887,0.07894736842105265
217,911.5839243498817,0.07236842105263153
218,911.5839243498817,0.07894736842105265
219,914.3814026792752,0.07236842105263153
220,917.1788810086682,0.06578947368421051
221,917.1788810086682,0.07236842105263153
222,919.9763593380617,0.06578947368421051
223,922.7738376674547,0.06578947368421051
224,922.7738376674547,0.05921052631578949
225,925.5713159968477,0.05921052631578949
226,928.3687943262412,0.05921052631578949
227,931.1662726556342,0.05921052631578949
228,933.9637509850277,0.06578947368421051
229,933.9637509850277,0.05921052631578949
230,936.7612293144207,0.06578947368421051
231,939.5587076438142,0.06578947368421051
232,942.3561859732072,0.07236842105263153
233,942.3561859732072,0.06578947368421051
234,945.1536643026006,0.07236842105263153
235,947.9511426319937,0.07236842105263153
236,947.9511426319937,0.07894736842105265
237,950.7486209613871,0.08552631578947367
238,950.7486209613871,0.07894736842105265
239,953.5460992907801,0.09210526315789469
240,953.5460992907801,0.08552631578947367
241,956.3435776201732,0.09868421052631582
242,956.3435776201732,0.09210526315789469
243,959.1410559495666,0.09868421052631582
244,959.1410559495666,0.10526315789473684
245,961.9385342789597,0.10526315789473684
246,964.7360126083531,0.10526315789473684
247,967.5334909377461,0.09868421052631582
248,967.5334909377461,0.10526315789473684
249,970.3309692671396,0.09868421052631582
250,973.1284475965326,0.09868421052631582
251,973.1284475965326,0.10526315789473684
252,975.9259259259261,0.11184210526315785
253,975.9259259259261,0.10526315789473684
254,978.7234042553191,0.11184210526315785
255,978.7234042553191,0.125
256,978.7234042553191,0.11842105263157898
257,981.5208825847126,0.125
258,981.5208825847126,0.13157894736842102
259,984.3183609141056,0.13157894736842102
260,987.1158392434986,0.125
261,987.1158392434986,0.13157894736842102
262,989.9133175728921,0.125
263,992.7107959022851,0.10526315789473684
264,992.7107959022851,0.125
265,992.7107959022851,0.11184210526315785
266,992.7107959022851,0.11842105263157898
267,995.5082742316786,0.10526315789473684
268,995.5082742316786,0.09868421052631582
269,998.3057525610716,0.07894736842105265
270,998.3057525610716,0.08552631578947367
271,998.3057525610716,0.09210526315789469
272,998.3057525610716,0.09868421052631582
273,1001.103230890465,0.07894736842105265
274,1003.9007092198581,0.07236842105263153
275,1003.9007092198581,0.07894736842105265
276,1006.6981875492515,0.07894736842105265
277,1009.4956658786446,0.08552631578947367
278,1009.4956658786446,0.07894736842105265
279,1012.293144208038,0.09210526315789469
280,1012.293144208038,0.08552631578947367
281,1015.090622537431,0.09210526315789469
282,1017.8881008668241,0.09210526315789469
283,1020.6855791962175,0.09210526315789469
284,1023.4830575256105,0.09210526315789469
285,1026.280535855004,0.09210526315789469
286,1029.078014184397,0.09210526315789469
287,1031.8754925137905,0.09210526315789469
288,1034.6729708431835,0.08552631578947367
289,1034.6729708431835,0.09210526315789469
290,1037.470449172577,0.08552631578947367
291,1040.26792750197,0.08552631578947367
292,1043.0654058313635,0.08552631578947367
293,1045.8628841607565,0.08552631578947367
294,1045.8628841607565,0.09210526315789469
295,1048.6603624901495,0.10526315789473684
296,1048.6603624901495,0.09210526315789469
297,1048.6603624901495,0.09868421052631582
298,1051.457840819543,0.10526315789473684
299,1051.457840819543,0.11184210526315785
300,1054.255319148936,0.13815789473684215
301,1054.255319148936,0.11184210526315785
302,1054.255319148936,0.13157894736842102
303,1054.255319148936,0.11842105263157898
304,1054.255319148936,0.125
305,1057.0527974783295,0.13815789473684215
306,1057.0527974783295,0.15131578947368418
307,1057.0527974783295,0.14473684210526316
308,1059.8502758077225,0.1578947368421053
309,1059.8502758077225,0.15131578947368418
310,1059.8502758077225,0.16447368421052633
311,1059.8502758077225,0.17105263157894735
312,1062.647754137116,0.17763157894736847
313,1062.647754137116,0.17105263157894735
314,1065.445232466509,0.17105263157894735
315,1065.445232466509,0.16447368421052633
316,1065.445232466509,0.17763157894736847
317,1068.2427107959024,0.1578947368421053
318,1068.2427107959024,0.15131578947368418
319,1068.2427107959024,0.16447368421052633
320,1068.2427107959024,0.14473684210526316
321,1071.0401891252955,0.14473684210526316
322,1071.0401891252955,0.13815789473684215
323,1073.837667454689,0.13157894736842102
324,1073.837667454689,0.13815789473684215
325,1073.837667454689,0.125
326,1076.635145784082,0.11842105263157898
327,1076.635145784082,0.125
328,1079.432624113475,0.11842105263157898
329,1082.2301024428684,0.11842105263157898
330,1085.0275807722614,0.11842105263157898
331,1087.825059101655,0.125
332,1087.825059101655,0.11842105263157898
333,1090.622537431048,0.13157894736842102
334,1090.622537431048,0.125
335,1093.4200157604414,0.13157894736842102
336,1096.2174940898344,0.13157894736842102
337,1096.2174940898344,0.13815789473684215
338,1099.014972419228,0.13815789473684215
339,1101.812450748621,0.13815789473684215
340,1101.812450748621,0.14473684210526316
341,1104.6099290780144,0.15131578947368418
342,1104.6099290780144,0.1578947368421053
343,1104.6099290780144,0.14473684210526316
344,1107.4074074074074,0.1578947368421053
345,1107.4074074074074,0.16447368421052633
346,1110.2048857368004,0.17763157894736847
347,1110.2048857368004,0.17105263157894735
348,1110.2048857368004,0.1842105263157895
349,1110.2048857368004,0.16447368421052633
350,1113.0023640661939,0.1907894736842105
351,1113.0023640661939,0.1842105263157895
352,1115.799842395587,0.20394736842105265
353,1115.799842395587,0.19736842105263153
354,1115.799842395587,0.1907894736842105
355,1115.799842395587,0.21052631578947367
356,1118.5973207249804,0.2171052631578947
357,1118.5973207249804,0.21052631578947367
358,1121.3947990543734,0.22368421052631582
359,1121.3947990543734,0.2171052631578947
360,1121.3947990543734,0.23684210526315785
361,1121.3947990543734,0.24342105263157898
362,1121.3947990543734,0.23026315789473684
363,1124.1922773837669,0.26315789473684215
364,1124.1922773837669,0.256578947368421
365,1124.1922773837669,0.25
366,1124.1922773837669,0.24342105263157898
367,1126.9897557131599,0.2894736842105263
368,1126.9897557131599,0.2763157894736842
369,1126.9897557131599,0.2828947368421053
370,1126.9897557131599,0.26315789473684215
371,1126.9897557131599,0.26973684210526316
372,1129.7872340425533,0.29605263157894735
373,1129.7872340425533,0.32894736842105265
374,1129.7872340425533,0.3026315789473685
375,1129.7872340425533,0.3355263157894737
376,1129.7872340425533,0.3157894736842105
377,1129.7872340425533,0.3223684210526315
378,1129.7872340425533,0.2894736842105263
379,1129.7872340425533,0.3092105263157895
380,1129.7872340425533,0.3486842105263158
381,1129.7872340425533,0.3421052631578947
382,1132.5847123719464,0.35526315789473684
383,1132.5847123719464,0.381578947368421
384,1132.5847123719464,0.368421052631579
385,1132.5847123719464,0.3486842105263158
386,1132.5847123719464,0.375
387,1132.5847123719464,0.36184210526315785
388,1135.3821907013398,0.4144736842105263
389,1135.3821907013398,0.4078947368421053
390,1135.3821907013398,0.4276315789473685
391,1135.3821907013398,0.45394736842105265
392,1135.3821907013398,0.4013157894736842
393,1135.3821907013398,0.4473684210526315
394,1135.3821907013398,0.4605263157894737
395,1135.3821907013398,0.39473684210526316
396,1135.3821907013398,0.4342105263157895
397,1135.3821907013398,0.4407894736842105
398,1135.3821907013398,0.4671052631578947
399,1135.3821907013398,0.42105263157894735
400,1135.3821907013398,0.38815789473684215
401,1135.3821907013398,0.381578947368421
402,1138.1796690307328,0.4671052631578947
403,1138.1796690307328,0.4736842105263158
404,1138.1796690307328,0.48684210526315785
405,1138.1796690307328,0.493421052631579
406,1138.1796690307328,0.48026315789473684
407,1138.1796690307328,0.506578947368421
408,1138.1796690307328,0.513157894736842
409,1138.1796690307328,0.5
410,1140.9771473601263,0.5394736842105263
411,1140.9771473601263,0.513157894736842
412,1140.9771473601263,0.5197368421052632
413,1140.9771473601263,0.5921052631578947
414,1140.9771473601263,0.5263157894736843
415,1140.9771473601263,0.5592105263157895
416,1140.9771473601263,0.5789473684210527
417,1140.9771473601263,0.5723684210526316
418,1140.9771473601263,0.5328947368421053
419,1140.9771473601263,0.5460526315789473
420,1140.9771473601263,0.5855263157894737
421,1140.9771473601263,0.5657894736842105
422,1140.9771473601263,0.5526315789473684
423,1143.7746256895193,0.6052631578947368
424,1143.7746256895193,0.5986842105263157
425,1143.7746256895193,0.5921052631578947
426,1146.5721040189123,0.5657894736842105
427,1146.5721040189123,0.5921052631578947
428,1146.5721040189123,0.6052631578947368
429,1146.5721040189123,0.5855263157894737
430,1146.5721040189123,0.5723684210526316
431,1146.5721040189123,0.5789473684210527
432,1146.5721040189123,0.5986842105263157
433,1149.3695823483058,0.5526315789473684
434,1149.3695823483058,0.5592105263157895
435,1149.3695823483058,0.5263157894736843
436,1149.3695823483058,0.5328947368421053
437,1149.3695823483058,0.5460526315789473
438,1149.3695823483058,0.5657894736842105
439,1149.3695823483058,0.5394736842105263
440,1152.1670606776988,0.506578947368421
441,1152.1670606776988,0.5263157894736843
442,1152.1670606776988,0.493421052631579
443,1152.1670606776988,0.48684210526315785
444,1152.1670606776988,0.513157894736842
445,1152.1670606776988,0.48026315789473684
446,1152.1670606776988,0.4736842105263158
447,1152.1670606776988,0.4671052631578947
448,1152.1670606776988,0.5197368421052632
449,1152.1670606776988,0.5
450,1152.1670606776988,0.4605263157894737
451,1154.9645390070923,0.45394736842105265
452,1154.9645390070923,0.4473684210526315
453,1154.9645390070923,0.4407894736842105
454,1154.9645390070923,0.4342105263157895
455,1154.9645390070923,0.4605263157894737
456,1157.7620173364853,0.4342105263157895
457,1157.7620173364853,0.42105263157894735
458,1157.7620173364853,0.4276315789473685
459,1160.5594956658788,0.4013157894736842
460,1160.5594956658788,0.4078947368421053
461,1160.5594956658788,0.4144736842105263
462,1160.5594956658788,0.42105263157894735
463,1160.5594956658788,0.39473684210526316
464,1163.3569739952718,0.39473684210526316
465,1163.3569739952718,0.38815789473684215
466,1166.1544523246653,0.38815789473684215
467,1168.9519306540583,0.38815789473684215
468,1171.7494089834518,0.38815789473684215
