,wavenumbers,absorbance
0,452.797478329393,0.06578947368421051
1,455.5949566587865,0.05921052631578949
2,455.5949566587865,0.06578947368421051
3,458.3924349881795,0.05921052631578949
4,461.189913317573,0.05921052631578949
5,461.189913317573,0.052631578947368474
6,463.987391646966,0.052631578947368474
7,466.78486997635946,0.052631578947368474
8,469.5823483057525,0.052631578947368474
9,469.5823483057525,0.046052631578947345
10,472.37982663514595,0.046052631578947345
11,475.17730496453896,0.046052631578947345
12,477.97478329393243,0.046052631578947345
13,477.97478329393243,0.03947368421052633
14,480.77226162332545,0.03947368421052633
15,483.56973995271846,0.03947368421052633
16,486.36721828211193,0.03947368421052633
17,489.16469661150495,0.03947368421052633
18,491.9621749408984,0.03947368421052633
19,494.75965327029144,0.03947368421052633
20,497.5571315996849,0.03947368421052633
21,500.3546099290779,0.03947368421052633
22,503.1520882584714,0.03947368421052633
23,505.9495665878644,0.03947368421052633
24,508.7470449172579,0.03947368421052633
25,511.5445232466509,0.03947368421052633
26,514.3420015760439,0.03947368421052633
27,517.1394799054374,0.03947368421052633
28,519.9369582348304,0.03947368421052633
29,522.7344365642239,0.03947368421052633
30,525.5319148936169,0.03947368421052633
31,528.3293932230104,0.03947368421052633
32,531.1268715524034,0.03947368421052633
33,533.9243498817968,0.03947368421052633
34,536.7218282111899,0.03947368421052633
35,539.5193065405833,0.03947368421052633
36,542.3167848699763,0.03947368421052633
37,542.3167848699763,0.046052631578947345
38,545.1142631993694,0.046052631578947345
39,547.9117415287628,0.046052631578947345
40,550.7092198581558,0.046052631578947345
41,553.5066981875493,0.052631578947368474
42,553.5066981875493,0.046052631578947345
43,556.3041765169423,0.052631578947368474
44,559.1016548463358,0.052631578947368474
45,559.1016548463358,0.046052631578947345
46,561.8991331757288,0.046052631578947345
47,564.6966115051223,0.046052631578947345
48,567.4940898345153,0.046052631578947345
49,570.2915681639088,0.046052631578947345
50,573.0890464933018,0.03947368421052633
51,573.0890464933018,0.046052631578947345
52,575.8865248226948,0.03947368421052633
53,578.6840031520883,0.03947368421052633
54,581.4814814814813,0.03947368421052633
55,584.2789598108748,0.03947368421052633
56,587.0764381402678,0.03947368421052633
57,587.0764381402678,0.03289473684210531
58,589.8739164696613,0.03289473684210531
59,592.6713947990543,0.03289473684210531
60,595.4688731284477,0.03289473684210531
61,598.2663514578408,0.03289473684210531
62,601.0638297872342,0.03289473684210531
63,603.8613081166272,0.03289473684210531
64,606.6587864460207,0.03289473684210531
65,609.4562647754137,0.03289473684210531
66,612.2537431048067,0.03289473684210531
67,615.0512214342002,0.03289473684210531
68,617.8486997635932,0.03289473684210531
69,620.6461780929867,0.03289473684210531
70,623.4436564223797,0.03289473684210531
71,626.2411347517732,0.03289473684210531
72,629.0386130811662,0.03289473684210531
73,631.8360914105597,0.03289473684210531
74,631.8360914105597,0.02631578947368418
75,634.6335697399527,0.02631578947368418
76,637.4310480693462,0.02631578947368418
77,640.2285263987392,0.02631578947368418
78,643.0260047281322,0.02631578947368418
79,645.8234830575257,0.02631578947368418
80,648.6209613869187,0.02631578947368418
81,651.4184397163122,0.02631578947368418
82,654.2159180457052,0.02631578947368418
83,657.0133963750986,0.03289473684210531
84,657.0133963750986,0.02631578947368418
85,659.8108747044917,0.03289473684210531
86,662.6083530338851,0.03289473684210531
87,665.4058313632781,0.03289473684210531
88,668.2033096926716,0.03289473684210531
89,671.0007880220646,0.03289473684210531
90,673.7982663514576,0.03289473684210531
91,676.5957446808511,0.03289473684210531
92,679.3932230102441,0.03289473684210531
93,679.3932230102441,0.03947368421052633
94,682.1907013396376,0.03947368421052633
95,682.1907013396376,0.046052631578947345
96,684.9881796690306,0.046052631578947345
97,687.7856579984241,0.05921052631578949
98,687.7856579984241,0.052631578947368474
99,687.7856579984241,0.046052631578947345
100,687.7856579984241,0.07236842105263153
101,687.7856579984241,0.06578947368421051
102,690.5831363278171,0.09210526315789469
103,690.5831363278171,0.08552631578947367
104,690.5831363278171,0.07894736842105265
105,690.5831363278171,0.07236842105263153
106,690.5831363278171,0.09868421052631582
107,693.3806146572106,0.16447368421052633
108,693.3806146572106,0.11184210526315785
109,693.3806146572106,0.1578947368421053
110,693.3806146572106,0.09868421052631582
111,693.3806146572106,0.10526315789473684
112,693.3806146572106,0.11842105263157898
113,693.3806146572106,0.17763157894736847
114,693.3806146572106,0.125
115,693.3806146572106,0.15131578947368418
116,693.3806146572106,0.1842105263157895
117,693.3806146572106,0.17105263157894735
118,693.3806146572106,0.1907894736842105
119,693.3806146572106,0.13815789473684215
120,693.3806146572106,0.13157894736842102
121,693.3806146572106,0.14473684210526316
122,696.1780929866036,0.2171052631578947
123,696.1780929866036,0.21052631578947367
124,696.1780929866036,0.1907894736842105
125,696.1780929866036,0.20394736842105265
126,696.1780929866036,0.19736842105263153
127,698.9755713159971,0.2171052631578947
128,698.9755713159971,0.20394736842105265
129,698.9755713159971,0.21052631578947367
130,701.7730496453901,0.19736842105263153
131,701.7730496453901,0.20394736842105265
132,701.7730496453901,0.1907894736842105
133,701.7730496453901,0.1842105263157895
134,704.5705279747831,0.17763157894736847
135,704.5705279747831,0.1842105263157895
136,704.5705279747831,0.17105263157894735
137,704.5705279747831,0.16447368421052633
138,707.3680063041766,0.15131578947368418
139,707.3680063041766,0.125
140,707.3680063041766,0.1578947368421053
141,707.3680063041766,0.13157894736842102
142,707.3680063041766,0.16447368421052633
143,707.3680063041766,0.14473684210526316
144,707.3680063041766,0.13815789473684215
145,710.1654846335696,0.11842105263157898
146,710.1654846335696,0.11184210526315785
147,710.1654846335696,0.125
148,712.962962962963,0.11184210526315785
149,715.7604412923561,0.11184210526315785
150,715.7604412923561,0.11842105263157898
151,718.5579196217495,0.125
152,718.5579196217495,0.11842105263157898
153,718.5579196217495,0.13157894736842102
154,721.3553979511425,0.13157894736842102
155,721.3553979511425,0.13815789473684215
156,724.152876280536,0.15131578947368418
157,724.152876280536,0.14473684210526316
158,724.152876280536,0.13815789473684215
159,726.950354609929,0.15131578947368418
160,729.7478329393225,0.15131578947368418
161,729.7478329393225,0.1578947368421053
162,732.5453112687155,0.1578947368421053
163,732.5453112687155,0.1907894736842105
164,732.5453112687155,0.19736842105263153
165,732.5453112687155,0.17763157894736847
166,732.5453112687155,0.17105263157894735
167,732.5453112687155,0.1842105263157895
168,732.5453112687155,0.16447368421052633
169,735.3427895981085,0.19736842105263153
170,735.3427895981085,0.20394736842105265
171,735.3427895981085,0.23026315789473684
172,735.3427895981085,0.21052631578947367
173,735.3427895981085,0.22368421052631582
174,735.3427895981085,0.2171052631578947
175,738.140267927502,0.2828947368421053
176,738.140267927502,0.26315789473684215
177,738.140267927502,0.24342105263157898
178,738.140267927502,0.25
179,738.140267927502,0.2894736842105263
180,738.140267927502,0.23684210526315785
181,738.140267927502,0.23026315789473684
182,738.140267927502,0.2763157894736842
183,738.140267927502,0.256578947368421
184,738.140267927502,0.26973684210526316
185,740.937746256895,0.3092105263157895
186,740.937746256895,0.29605263157894735
187,740.937746256895,0.3026315789473685
188,740.937746256895,0.2894736842105263
189,743.7352245862885,0.3223684210526315
190,743.7352245862885,0.3092105263157895
191,743.7352245862885,0.3157894736842105
192,746.5327029156815,0.3223684210526315
193,746.5327029156815,0.3157894736842105
194,749.330181245075,0.2894736842105263
195,749.330181245075,0.26973684210526316
196,749.330181245075,0.29605263157894735
197,749.330181245075,0.3026315789473685
198,749.330181245075,0.2763157894736842
199,749.330181245075,0.3157894736842105
200,749.330181245075,0.3092105263157895
201,749.330181245075,0.2828947368421053
202,752.127659574468,0.24342105263157898
203,752.127659574468,0.25
204,752.127659574468,0.256578947368421
205,752.127659574468,0.26315789473684215
206,752.127659574468,0.26973684210526316
207,754.9251379038615,0.23684210526315785
208,754.9251379038615,0.24342105263157898
209,754.9251379038615,0.23026315789473684
210,754.9251379038615,0.22368421052631582
211,754.9251379038615,0.2171052631578947
212,754.9251379038615,0.21052631578947367
213,754.9251379038615,0.20394736842105265
214,754.9251379038615,0.1907894736842105
215,754.9251379038615,0.19736842105263153
216,757.7226162332545,0.1907894736842105
217,757.7226162332545,0.1842105263157895
218,757.7226162332545,0.17763157894736847
219,757.7226162332545,0.17105263157894735
220,760.520094562648,0.17105263157894735
221,760.520094562648,0.15131578947368418
222,760.520094562648,0.16447368421052633
223,760.520094562648,0.1578947368421053
224,763.317572892041,0.13157894736842102
225,763.317572892041,0.11184210526315785
226,763.317572892041,0.13815789473684215
227,763.317572892041,0.15131578947368418
228,763.317572892041,0.14473684210526316
229,763.317572892041,0.11842105263157898
230,763.317572892041,0.125
231,766.115051221434,0.09868421052631582
232,766.115051221434,0.10526315789473684
233,766.115051221434,0.11184210526315785
234,768.9125295508275,0.08552631578947367
235,768.9125295508275,0.09210526315789469
236,768.9125295508275,0.09868421052631582
237,771.7100078802205,0.09210526315789469
238,771.7100078802205,0.08552631578947367
239,774.507486209614,0.09868421052631582
240,774.507486209614,0.10526315789473684
241,774.507486209614,0.09210526315789469
242,777.304964539007,0.11184210526315785
243,777.304964539007,0.10526315789473684
244,780.1024428684004,0.11842105263157898
245,780.1024428684004,0.11184210526315785
246,782.8999211977934,0.11184210526315785
247,782.8999211977934,0.10526315789473684
248,785.6973995271869,0.09210526315789469
249,785.6973995271869,0.10526315789473684
250,785.6973995271869,0.09868421052631582
251,788.4948778565799,0.07894736842105265
252,788.4948778565799,0.08552631578947367
253,788.4948778565799,0.09210526315789469
254,791.2923561859734,0.07894736842105265
255,791.2923561859734,0.07236842105263153
256,794.0898345153664,0.07236842105263153
257,796.8873128447594,0.07236842105263153
258,799.6847911741529,0.08552631578947367
259,799.6847911741529,0.07894736842105265
260,799.6847911741529,0.07236842105263153
261,802.4822695035459,0.08552631578947367
262,802.4822695035459,0.09210526315789469
263,805.2797478329394,0.09868421052631582
264,805.2797478329394,0.09210526315789469
265,808.0772261623324,0.11184210526315785
266,808.0772261623324,0.10526315789473684
267,808.0772261623324,0.09868421052631582
268,810.8747044917259,0.11842105263157898
269,810.8747044917259,0.11184210526315785
270,813.6721828211189,0.11184210526315785
271,813.6721828211189,0.11842105263157898
272,816.4696611505124,0.11184210526315785
273,816.4696611505124,0.10526315789473684
274,816.4696611505124,0.09868421052631582
275,819.2671394799054,0.09868421052631582
276,819.2671394799054,0.09210526315789469
277,819.2671394799054,0.07894736842105265
278,819.2671394799054,0.08552631578947367
279,822.0646178092989,0.07236842105263153
280,822.0646178092989,0.07894736842105265
281,824.8620961386919,0.05921052631578949
282,824.8620961386919,0.06578947368421051
283,824.8620961386919,0.07236842105263153
284,827.6595744680849,0.05921052631578949
285,830.4570527974784,0.052631578947368474
286,830.4570527974784,0.05921052631578949
287,833.2545311268714,0.052631578947368474
288,836.0520094562648,0.052631578947368474
289,838.8494877856579,0.052631578947368474
290,841.6469661150513,0.052631578947368474
291,844.4444444444443,0.052631578947368474
292,847.2419227738378,0.052631578947368474
293,850.0394011032308,0.052631578947368474
294,852.8368794326243,0.052631578947368474
295,855.6343577620173,0.052631578947368474
296,858.4318360914103,0.052631578947368474
297,861.2293144208038,0.052631578947368474
298,864.0267927501968,0.052631578947368474
299,866.8242710795903,0.052631578947368474
300,869.6217494089833,0.05921052631578949
301,869.6217494089833,0.052631578947368474
302,872.4192277383768,0.05921052631578949
303,875.2167060677698,0.05921052631578949
304,878.0141843971633,0.05921052631578949
305,880.8116627265563,0.05921052631578949
306,883.6091410559497,0.05921052631578949
307,886.4066193853428,0.05921052631578949
308,889.2040977147362,0.05921052631578949
309,892.0015760441293,0.05921052631578949
310,894.7990543735223,0.05921052631578949
311,897.5965327029157,0.05921052631578949
312,900.3940110323088,0.05921052631578949
313,903.1914893617022,0.05921052631578949
314,905.9889676910952,0.05921052631578949
315,908.7864460204887,0.05921052631578949
316,911.5839243498817,0.05921052631578949
317,914.3814026792752,0.052631578947368474
318,914.3814026792752,0.05921052631578949
319,917.1788810086682,0.052631578947368474
320,919.9763593380617,0.046052631578947345
321,919.9763593380617,0.052631578947368474
322,922.7738376674547,0.046052631578947345
323,922.7738376674547,0.052631578947368474
324,925.5713159968477,0.052631578947368474
325,928.3687943262412,0.052631578947368474
326,931.1662726556342,0.052631578947368474
327,931.1662726556342,0.05921052631578949
328,933.9637509850277,0.05921052631578949
329,936.7612293144207,0.052631578947368474
330,936.7612293144207,0.05921052631578949
331,939.5587076438142,0.052631578947368474
332,942.3561859732072,0.052631578947368474
333,945.1536643026006,0.052631578947368474
334,947.9511426319937,0.052631578947368474
335,947.9511426319937,0.046052631578947345
336,950.7486209613871,0.046052631578947345
337,953.5460992907801,0.046052631578947345
338,956.3435776201732,0.046052631578947345
339,959.1410559495666,0.046052631578947345
340,961.9385342789597,0.046052631578947345
341,964.7360126083531,0.046052631578947345
342,967.5334909377461,0.046052631578947345
343,970.3309692671396,0.046052631578947345
344,973.1284475965326,0.046052631578947345
345,975.9259259259261,0.046052631578947345
346,975.9259259259261,0.03947368421052633
347,978.7234042553191,0.03947368421052633
348,981.5208825847126,0.046052631578947345
349,981.5208825847126,0.03947368421052633
350,984.3183609141056,0.046052631578947345
351,987.1158392434986,0.046052631578947345
352,989.9133175728921,0.046052631578947345
353,992.7107959022851,0.046052631578947345
354,995.5082742316786,0.046052631578947345
355,998.3057525610716,0.046052631578947345
356,1001.103230890465,0.046052631578947345
357,1003.9007092198581,0.046052631578947345
358,1006.6981875492515,0.052631578947368474
359,1006.6981875492515,0.046052631578947345
360,1009.4956658786446,0.05921052631578949
361,1009.4956658786446,0.052631578947368474
362,1012.293144208038,0.05921052631578949
363,1012.293144208038,0.06578947368421051
364,1015.090622537431,0.06578947368421051
365,1015.090622537431,0.07236842105263153
366,1017.8881008668241,0.07236842105263153
367,1017.8881008668241,0.08552631578947367
368,1017.8881008668241,0.07894736842105265
369,1020.6855791962175,0.08552631578947367
370,1023.4830575256105,0.08552631578947367
371,1026.280535855004,0.08552631578947367
372,1029.078014184397,0.08552631578947367
373,1029.078014184397,0.07894736842105265
374,1031.8754925137905,0.07894736842105265
375,1031.8754925137905,0.07236842105263153
376,1034.6729708431835,0.06578947368421051
377,1034.6729708431835,0.07236842105263153
378,1037.470449172577,0.06578947368421051
379,1040.26792750197,0.05921052631578949
380,1040.26792750197,0.06578947368421051
381,1043.0654058313635,0.05921052631578949
382,1045.8628841607565,0.05921052631578949
383,1048.6603624901495,0.05921052631578949
384,1051.457840819543,0.06578947368421051
385,1051.457840819543,0.05921052631578949
386,1054.255319148936,0.06578947368421051
387,1054.255319148936,0.07236842105263153
388,1057.0527974783295,0.07894736842105265
389,1057.0527974783295,0.07236842105263153
390,1059.8502758077225,0.07894736842105265
391,1059.8502758077225,0.08552631578947367
392,1059.8502758077225,0.09210526315789469
393,1062.647754137116,0.10526315789473684
394,1062.647754137116,0.09210526315789469
395,1062.647754137116,0.09868421052631582
396,1065.445232466509,0.11184210526315785
397,1065.445232466509,0.10526315789473684
398,1068.2427107959024,0.10526315789473684
399,1068.2427107959024,0.11184210526315785
400,1071.0401891252955,0.09868421052631582
401,1071.0401891252955,0.10526315789473684
402,1073.837667454689,0.09210526315789469
403,1073.837667454689,0.09868421052631582
404,1073.837667454689,0.07894736842105265
405,1073.837667454689,0.08552631578947367
406,1076.635145784082,0.07894736842105265
407,1076.635145784082,0.07236842105263153
408,1079.432624113475,0.07236842105263153
409,1079.432624113475,0.06578947368421051
410,1082.2301024428684,0.06578947368421051
411,1085.0275807722614,0.06578947368421051
412,1087.825059101655,0.06578947368421051
413,1090.622537431048,0.05921052631578949
414,1090.622537431048,0.06578947368421051
415,1093.4200157604414,0.05921052631578949
416,1096.2174940898344,0.05921052631578949
417,1096.2174940898344,0.052631578947368474
418,1099.014972419228,0.052631578947368474
419,1101.812450748621,0.052631578947368474
420,1104.6099290780144,0.052631578947368474
421,1107.4074074074074,0.052631578947368474
422,1110.2048857368004,0.052631578947368474
423,1113.0023640661939,0.052631578947368474
424,1115.799842395587,0.052631578947368474
425,1118.5973207249804,0.052631578947368474
426,1118.5973207249804,0.046052631578947345
427,1121.3947990543734,0.046052631578947345
428,1124.1922773837669,0.046052631578947345
429,1126.9897557131599,0.046052631578947345
430,1129.7872340425533,0.052631578947368474
431,1129.7872340425533,0.046052631578947345
432,1132.5847123719464,0.052631578947368474
433,1135.3821907013398,0.046052631578947345
434,1135.3821907013398,0.052631578947368474
435,1138.1796690307328,0.046052631578947345
436,1138.1796690307328,0.052631578947368474
437,1140.9771473601263,0.052631578947368474
438,1143.7746256895193,0.052631578947368474
439,1143.7746256895193,0.05921052631578949
440,1146.5721040189123,0.05921052631578949
441,1146.5721040189123,0.06578947368421051
442,1149.3695823483058,0.06578947368421051
443,1152.1670606776988,0.06578947368421051
444,1154.9645390070923,0.06578947368421051
445,1157.7620173364853,0.06578947368421051
446,1160.5594956658788,0.06578947368421051
447,1163.3569739952718,0.06578947368421051
448,1163.3569739952718,0.05921052631578949
449,1166.1544523246653,0.05921052631578949
450,1168.9519306540583,0.05921052631578949
451,1171.7494089834518,0.05921052631578949
452,1174.5468873128448,0.05921052631578949
453,1177.3443656422378,0.052631578947368474
454,1177.3443656422378,0.05921052631578949
455,1180.1418439716313,0.052631578947368474
456,1182.9393223010243,0.052631578947368474
457,1185.7368006304177,0.052631578947368474
458,1188.5342789598108,0.052631578947368474
459,1191.3317572892042,0.052631578947368474
460,1194.1292356185972,0.052631578947368474
461,1196.9267139479907,0.052631578947368474
462,1199.7241922773837,0.052631578947368474
463,1202.5216706067772,0.052631578947368474
464,1205.3191489361702,0.052631578947368474
465,1208.1166272655632,0.052631578947368474
466,1210.9141055949567,0.052631578947368474
