,wavenumbers,absorbance
0,452.797478329393,0.03947368421052633
1,455.5949566587865,0.046052631578947345
2,455.5949566587865,0.03947368421052633
3,458.3924349881795,0.046052631578947345
4,461.189913317573,0.046052631578947345
5,463.987391646966,0.03947368421052633
6,463.987391646966,0.046052631578947345
7,466.78486997635946,0.03947368421052633
8,469.5823483057525,0.03947368421052633
9,472.37982663514595,0.03947368421052633
10,475.17730496453896,0.03947368421052633
11,477.97478329393243,0.03947368421052633
12,480.77226162332545,0.03947368421052633
13,483.56973995271846,0.03947368421052633
14,486.36721828211193,0.03947368421052633
15,486.36721828211193,0.046052631578947345
16,489.16469661150495,0.046052631578947345
17,491.9621749408984,0.046052631578947345
18,494.75965327029144,0.046052631578947345
19,497.5571315996849,0.046052631578947345
20,500.3546099290779,0.046052631578947345
21,503.1520882584714,0.03947368421052633
22,503.1520882584714,0.046052631578947345
23,505.9495665878644,0.03947368421052633
24,508.7470449172579,0.03947368421052633
25,511.5445232466509,0.03947368421052633
26,514.3420015760439,0.03947368421052633
27,517.1394799054374,0.03947368421052633
28,519.9369582348304,0.03947368421052633
29,522.7344365642239,0.03947368421052633
30,525.5319148936169,0.03947368421052633
31,528.3293932230104,0.03947368421052633
32,531.1268715524034,0.03947368421052633
33,533.9243498817968,0.03947368421052633
34,536.7218282111899,0.03947368421052633
35,539.5193065405833,0.03947368421052633
36,542.3167848699763,0.03947368421052633
37,545.1142631993694,0.03947368421052633
38,547.9117415287628,0.03947368421052633
39,550.7092198581558,0.03947368421052633
40,553.5066981875493,0.03289473684210531
41,553.5066981875493,0.03947368421052633
42,556.3041765169423,0.03289473684210531
43,556.3041765169423,0.03947368421052633
44,559.1016548463358,0.03947368421052633
45,561.8991331757288,0.03947368421052633
46,564.6966115051223,0.03289473684210531
47,564.6966115051223,0.03947368421052633
48,567.4940898345153,0.03289473684210531
49,570.2915681639088,0.03289473684210531
50,573.0890464933018,0.03289473684210531
51,575.8865248226948,0.03289473684210531
52,578.6840031520883,0.03289473684210531
53,581.4814814814813,0.03289473684210531
54,584.2789598108748,0.03289473684210531
55,587.0764381402678,0.03289473684210531
56,589.8739164696613,0.03289473684210531
57,592.6713947990543,0.03289473684210531
58,595.4688731284477,0.03289473684210531
59,598.2663514578408,0.03289473684210531
60,601.0638297872342,0.03289473684210531
61,603.8613081166272,0.03289473684210531
62,606.6587864460207,0.03289473684210531
63,609.4562647754137,0.03289473684210531
64,612.2537431048067,0.03289473684210531
65,612.2537431048067,0.03947368421052633
66,615.0512214342002,0.03947368421052633
67,617.8486997635932,0.03947368421052633
68,620.6461780929867,0.03947368421052633
69,623.4436564223797,0.03947368421052633
70,626.2411347517732,0.03947368421052633
71,629.0386130811662,0.03947368421052633
72,631.8360914105597,0.03289473684210531
73,631.8360914105597,0.03947368421052633
74,634.6335697399527,0.03289473684210531
75,637.4310480693462,0.03289473684210531
76,640.2285263987392,0.02631578947368418
77,640.2285263987392,0.03289473684210531
78,643.0260047281322,0.03289473684210531
79,643.0260047281322,0.02631578947368418
80,645.8234830575257,0.03289473684210531
81,648.6209613869187,0.02631578947368418
82,648.6209613869187,0.03289473684210531
83,651.4184397163122,0.02631578947368418
84,651.4184397163122,0.03289473684210531
85,654.2159180457052,0.03289473684210531
86,657.0133963750986,0.03289473684210531
87,657.0133963750986,0.03947368421052633
88,659.8108747044917,0.03947368421052633
89,662.6083530338851,0.03947368421052633
90,665.4058313632781,0.03947368421052633
91,668.2033096926716,0.03947368421052633
92,671.0007880220646,0.03947368421052633
93,673.7982663514576,0.03947368421052633
94,673.7982663514576,0.03289473684210531
95,676.5957446808511,0.03289473684210531
96,679.3932230102441,0.02631578947368418
97,679.3932230102441,0.03289473684210531
98,682.1907013396376,0.02631578947368418
99,684.9881796690306,0.02631578947368418
100,687.7856579984241,0.02631578947368418
101,687.7856579984241,0.019736842105263164
102,690.5831363278171,0.019736842105263164
103,693.3806146572106,0.019736842105263164
104,696.1780929866036,0.019736842105263164
105,698.9755713159971,0.019736842105263164
106,701.7730496453901,0.019736842105263164
107,704.5705279747831,0.019736842105263164
108,707.3680063041766,0.019736842105263164
109,710.1654846335696,0.019736842105263164
110,712.962962962963,0.019736842105263164
111,715.7604412923561,0.019736842105263164
112,718.5579196217495,0.019736842105263164
113,721.3553979511425,0.013157894736842146
114,721.3553979511425,0.019736842105263164
115,724.152876280536,0.019736842105263164
116,724.152876280536,0.013157894736842146
117,726.950354609929,0.019736842105263164
118,729.7478329393225,0.019736842105263164
119,732.5453112687155,0.019736842105263164
120,735.3427895981085,0.019736842105263164
121,738.140267927502,0.019736842105263164
122,740.937746256895,0.019736842105263164
123,743.7352245862885,0.019736842105263164
124,746.5327029156815,0.019736842105263164
125,749.330181245075,0.019736842105263164
126,752.127659574468,0.019736842105263164
127,754.9251379038615,0.019736842105263164
128,757.7226162332545,0.019736842105263164
129,760.520094562648,0.019736842105263164
130,763.317572892041,0.019736842105263164
131,766.115051221434,0.02631578947368418
132,766.115051221434,0.019736842105263164
133,768.9125295508275,0.02631578947368418
134,771.7100078802205,0.02631578947368418
135,774.507486209614,0.03289473684210531
136,774.507486209614,0.02631578947368418
137,777.304964539007,0.03289473684210531
138,777.304964539007,0.03947368421052633
139,780.1024428684004,0.03947368421052633
140,780.1024428684004,0.046052631578947345
141,782.8999211977934,0.046052631578947345
142,782.8999211977934,0.03947368421052633
143,785.6973995271869,0.03947368421052633
144,788.4948778565799,0.046052631578947345
145,788.4948778565799,0.03947368421052633
146,791.2923561859734,0.052631578947368474
147,791.2923561859734,0.046052631578947345
148,794.0898345153664,0.06578947368421051
149,794.0898345153664,0.052631578947368474
150,794.0898345153664,0.07236842105263153
151,794.0898345153664,0.05921052631578949
152,796.8873128447594,0.09868421052631582
153,796.8873128447594,0.10526315789473684
154,796.8873128447594,0.07236842105263153
155,796.8873128447594,0.09210526315789469
156,796.8873128447594,0.08552631578947367
157,796.8873128447594,0.07894736842105265
158,799.6847911741529,0.19736842105263153
159,799.6847911741529,0.16447368421052633
160,799.6847911741529,0.17763157894736847
161,799.6847911741529,0.23026315789473684
162,799.6847911741529,0.17105263157894735
163,799.6847911741529,0.10526315789473684
164,799.6847911741529,0.23684210526315785
165,799.6847911741529,0.21052631578947367
166,799.6847911741529,0.13157894736842102
167,799.6847911741529,0.1907894736842105
168,799.6847911741529,0.26973684210526316
169,799.6847911741529,0.13815789473684215
170,799.6847911741529,0.11184210526315785
171,799.6847911741529,0.24342105263157898
172,799.6847911741529,0.26315789473684215
173,799.6847911741529,0.1578947368421053
174,799.6847911741529,0.25
175,799.6847911741529,0.1842105263157895
176,799.6847911741529,0.22368421052631582
177,799.6847911741529,0.11842105263157898
178,799.6847911741529,0.256578947368421
179,799.6847911741529,0.20394736842105265
180,799.6847911741529,0.2171052631578947
181,799.6847911741529,0.15131578947368418
182,799.6847911741529,0.125
183,799.6847911741529,0.14473684210526316
184,802.4822695035459,0.3092105263157895
185,802.4822695035459,0.26973684210526316
186,802.4822695035459,0.3421052631578947
187,802.4822695035459,0.35526315789473684
188,802.4822695035459,0.2763157894736842
189,802.4822695035459,0.36184210526315785
190,802.4822695035459,0.29605263157894735
191,802.4822695035459,0.2894736842105263
192,802.4822695035459,0.3355263157894737
193,802.4822695035459,0.3157894736842105
194,802.4822695035459,0.32894736842105265
195,802.4822695035459,0.3026315789473685
196,802.4822695035459,0.2828947368421053
197,802.4822695035459,0.368421052631579
198,802.4822695035459,0.3223684210526315
199,802.4822695035459,0.3486842105263158
200,805.2797478329394,0.3486842105263158
201,805.2797478329394,0.35526315789473684
202,805.2797478329394,0.368421052631579
203,805.2797478329394,0.3421052631578947
204,805.2797478329394,0.375
205,805.2797478329394,0.36184210526315785
206,805.2797478329394,0.3355263157894737
207,805.2797478329394,0.381578947368421
208,808.0772261623324,0.3223684210526315
209,808.0772261623324,0.26315789473684215
210,808.0772261623324,0.3355263157894737
211,808.0772261623324,0.3157894736842105
212,808.0772261623324,0.32894736842105265
213,808.0772261623324,0.2828947368421053
214,808.0772261623324,0.26973684210526316
215,808.0772261623324,0.2763157894736842
216,808.0772261623324,0.3026315789473685
217,808.0772261623324,0.29605263157894735
218,808.0772261623324,0.2894736842105263
219,808.0772261623324,0.3092105263157895
220,810.8747044917259,0.16447368421052633
221,810.8747044917259,0.13157894736842102
222,810.8747044917259,0.1907894736842105
223,810.8747044917259,0.17763157894736847
224,810.8747044917259,0.15131578947368418
225,810.8747044917259,0.14473684210526316
226,810.8747044917259,0.22368421052631582
227,810.8747044917259,0.125
228,810.8747044917259,0.19736842105263153
229,810.8747044917259,0.1842105263157895
230,810.8747044917259,0.21052631578947367
231,810.8747044917259,0.25
232,810.8747044917259,0.24342105263157898
233,810.8747044917259,0.20394736842105265
234,810.8747044917259,0.26315789473684215
235,810.8747044917259,0.11842105263157898
236,810.8747044917259,0.2171052631578947
237,810.8747044917259,0.13815789473684215
238,810.8747044917259,0.1578947368421053
239,810.8747044917259,0.17105263157894735
240,810.8747044917259,0.23026315789473684
241,810.8747044917259,0.256578947368421
242,810.8747044917259,0.23684210526315785
243,813.6721828211189,0.11842105263157898
244,813.6721828211189,0.08552631578947367
245,813.6721828211189,0.11184210526315785
246,813.6721828211189,0.09210526315789469
247,813.6721828211189,0.10526315789473684
248,813.6721828211189,0.09868421052631582
249,813.6721828211189,0.07894736842105265
250,816.4696611505124,0.052631578947368474
251,816.4696611505124,0.07236842105263153
252,816.4696611505124,0.07894736842105265
253,816.4696611505124,0.05921052631578949
254,816.4696611505124,0.06578947368421051
255,819.2671394799054,0.052631578947368474
256,819.2671394799054,0.03947368421052633
257,819.2671394799054,0.046052631578947345
258,822.0646178092989,0.03289473684210531
259,822.0646178092989,0.03947368421052633
260,824.8620961386919,0.03289473684210531
261,824.8620961386919,0.03947368421052633
262,827.6595744680849,0.03947368421052633
263,830.4570527974784,0.03947368421052633
264,830.4570527974784,0.046052631578947345
265,833.2545311268714,0.046052631578947345
266,836.0520094562648,0.052631578947368474
267,836.0520094562648,0.046052631578947345
268,838.8494877856579,0.052631578947368474
269,841.6469661150513,0.052631578947368474
270,841.6469661150513,0.046052631578947345
271,844.4444444444443,0.046052631578947345
272,844.4444444444443,0.052631578947368474
273,847.2419227738378,0.052631578947368474
274,850.0394011032308,0.046052631578947345
275,850.0394011032308,0.052631578947368474
276,852.8368794326243,0.046052631578947345
277,855.6343577620173,0.046052631578947345
278,858.4318360914103,0.046052631578947345
279,861.2293144208038,0.046052631578947345
280,864.0267927501968,0.046052631578947345
281,866.8242710795903,0.046052631578947345
282,869.6217494089833,0.046052631578947345
283,872.4192277383768,0.046052631578947345
284,872.4192277383768,0.052631578947368474
285,875.2167060677698,0.05921052631578949
286,875.2167060677698,0.052631578947368474
287,878.0141843971633,0.05921052631578949
288,878.0141843971633,0.052631578947368474
289,880.8116627265563,0.052631578947368474
290,880.8116627265563,0.05921052631578949
291,883.6091410559497,0.05921052631578949
292,886.4066193853428,0.05921052631578949
293,886.4066193853428,0.06578947368421051
294,889.2040977147362,0.06578947368421051
295,892.0015760441293,0.06578947368421051
296,892.0015760441293,0.07236842105263153
297,894.7990543735223,0.07236842105263153
298,894.7990543735223,0.06578947368421051
299,897.5965327029157,0.06578947368421051
300,900.3940110323088,0.06578947368421051
301,903.1914893617022,0.06578947368421051
302,905.9889676910952,0.06578947368421051
303,905.9889676910952,0.05921052631578949
304,908.7864460204887,0.05921052631578949
305,911.5839243498817,0.05921052631578949
306,914.3814026792752,0.05921052631578949
307,917.1788810086682,0.06578947368421051
308,917.1788810086682,0.05921052631578949
309,919.9763593380617,0.06578947368421051
310,922.7738376674547,0.06578947368421051
311,925.5713159968477,0.06578947368421051
312,928.3687943262412,0.06578947368421051
313,931.1662726556342,0.06578947368421051
314,931.1662726556342,0.07236842105263153
315,933.9637509850277,0.06578947368421051
316,933.9637509850277,0.07236842105263153
317,936.7612293144207,0.06578947368421051
318,939.5587076438142,0.06578947368421051
319,942.3561859732072,0.06578947368421051
320,942.3561859732072,0.05921052631578949
321,945.1536643026006,0.07236842105263153
322,945.1536643026006,0.06578947368421051
323,947.9511426319937,0.08552631578947367
324,947.9511426319937,0.07894736842105265
325,947.9511426319937,0.07236842105263153
326,950.7486209613871,0.09210526315789469
327,950.7486209613871,0.08552631578947367
328,950.7486209613871,0.09868421052631582
329,953.5460992907801,0.10526315789473684
330,953.5460992907801,0.11184210526315785
331,953.5460992907801,0.13815789473684215
332,953.5460992907801,0.11842105263157898
333,953.5460992907801,0.125
334,953.5460992907801,0.09868421052631582
335,953.5460992907801,0.13157894736842102
336,956.3435776201732,0.15131578947368418
337,956.3435776201732,0.13815789473684215
338,956.3435776201732,0.14473684210526316
339,956.3435776201732,0.1578947368421053
340,956.3435776201732,0.16447368421052633
341,959.1410559495666,0.17763157894736847
342,959.1410559495666,0.1907894736842105
343,959.1410559495666,0.1842105263157895
344,959.1410559495666,0.17105263157894735
345,959.1410559495666,0.16447368421052633
346,961.9385342789597,0.22368421052631582
347,961.9385342789597,0.19736842105263153
348,961.9385342789597,0.2171052631578947
349,961.9385342789597,0.20394736842105265
350,961.9385342789597,0.23684210526315785
351,961.9385342789597,0.1907894736842105
352,961.9385342789597,0.21052631578947367
353,961.9385342789597,0.23026315789473684
354,964.7360126083531,0.23684210526315785
355,964.7360126083531,0.24342105263157898
356,964.7360126083531,0.25
357,967.5334909377461,0.26973684210526316
358,967.5334909377461,0.26315789473684215
359,967.5334909377461,0.25
360,967.5334909377461,0.256578947368421
361,970.3309692671396,0.26973684210526316
362,973.1284475965326,0.3026315789473685
363,973.1284475965326,0.2828947368421053
364,973.1284475965326,0.2763157894736842
365,973.1284475965326,0.29605263157894735
366,973.1284475965326,0.2894736842105263
367,973.1284475965326,0.26973684210526316
368,975.9259259259261,0.3026315789473685
369,975.9259259259261,0.3157894736842105
370,975.9259259259261,0.3223684210526315
371,975.9259259259261,0.3092105263157895
372,978.7234042553191,0.3355263157894737
373,978.7234042553191,0.32894736842105265
374,978.7234042553191,0.3223684210526315
375,978.7234042553191,0.3421052631578947
376,981.5208825847126,0.3421052631578947
377,984.3183609141056,0.3355263157894737
378,984.3183609141056,0.32894736842105265
379,984.3183609141056,0.3421052631578947
380,987.1158392434986,0.3092105263157895
381,987.1158392434986,0.3223684210526315
382,987.1158392434986,0.3026315789473685
383,987.1158392434986,0.32894736842105265
384,987.1158392434986,0.3157894736842105
385,987.1158392434986,0.29605263157894735
386,989.9133175728921,0.2763157894736842
387,989.9133175728921,0.2828947368421053
388,989.9133175728921,0.2894736842105263
389,989.9133175728921,0.29605263157894735
390,992.7107959022851,0.26973684210526316
391,992.7107959022851,0.26315789473684215
392,992.7107959022851,0.25
393,992.7107959022851,0.23684210526315785
394,992.7107959022851,0.2763157894736842
395,992.7107959022851,0.256578947368421
396,992.7107959022851,0.24342105263157898
397,995.5082742316786,0.22368421052631582
398,995.5082742316786,0.23684210526315785
399,995.5082742316786,0.2171052631578947
400,995.5082742316786,0.23026315789473684
401,998.3057525610716,0.2171052631578947
402,998.3057525610716,0.20394736842105265
403,998.3057525610716,0.21052631578947367
404,1001.103230890465,0.19736842105263153
405,1001.103230890465,0.20394736842105265
406,1003.9007092198581,0.1907894736842105
407,1003.9007092198581,0.19736842105263153
408,1006.6981875492515,0.1907894736842105
409,1009.4956658786446,0.1842105263157895
410,1009.4956658786446,0.1907894736842105
411,1012.293144208038,0.17105263157894735
412,1012.293144208038,0.17763157894736847
413,1012.293144208038,0.1842105263157895
414,1015.090622537431,0.16447368421052633
415,1015.090622537431,0.17105263157894735
416,1017.8881008668241,0.1578947368421053
417,1017.8881008668241,0.16447368421052633
418,1017.8881008668241,0.15131578947368418
419,1020.6855791962175,0.15131578947368418
420,1020.6855791962175,0.14473684210526316
421,1020.6855791962175,0.13815789473684215
422,1023.4830575256105,0.13815789473684215
423,1023.4830575256105,0.13157894736842102
424,1026.280535855004,0.13157894736842102
425,1026.280535855004,0.125
426,1029.078014184397,0.125
427,1029.078014184397,0.11842105263157898
428,1031.8754925137905,0.11842105263157898
429,1034.6729708431835,0.125
430,1034.6729708431835,0.13157894736842102
431,1034.6729708431835,0.11842105263157898
432,1037.470449172577,0.14473684210526316
433,1037.470449172577,0.13157894736842102
434,1037.470449172577,0.13815789473684215
435,1040.26792750197,0.14473684210526316
436,1040.26792750197,0.15131578947368418
437,1040.26792750197,0.1578947368421053
438,1040.26792750197,0.17105263157894735
439,1040.26792750197,0.16447368421052633
440,1043.0654058313635,0.19736842105263153
441,1043.0654058313635,0.17105263157894735
442,1043.0654058313635,0.1842105263157895
443,1043.0654058313635,0.1907894736842105
444,1043.0654058313635,0.17763157894736847
445,1043.0654058313635,0.20394736842105265
446,1045.8628841607565,0.21052631578947367
447,1045.8628841607565,0.2171052631578947
448,1045.8628841607565,0.23026315789473684
449,1045.8628841607565,0.20394736842105265
450,1045.8628841607565,0.22368421052631582
451,1048.6603624901495,0.32894736842105265
452,1048.6603624901495,0.2828947368421053
453,1048.6603624901495,0.2894736842105263
454,1048.6603624901495,0.3026315789473685
455,1048.6603624901495,0.3157894736842105
456,1048.6603624901495,0.2763157894736842
457,1048.6603624901495,0.29605263157894735
458,1048.6603624901495,0.26973684210526316
459,1048.6603624901495,0.3223684210526315
460,1048.6603624901495,0.23026315789473684
461,1048.6603624901495,0.26315789473684215
462,1048.6603624901495,0.3092105263157895
463,1048.6603624901495,0.256578947368421
464,1048.6603624901495,0.25
465,1048.6603624901495,0.24342105263157898
466,1048.6603624901495,0.23684210526315785
467,1051.457840819543,0.36184210526315785
468,1051.457840819543,0.32894736842105265
469,1051.457840819543,0.375
470,1051.457840819543,0.35526315789473684
