,wavenumbers,absorbance
0,452.797478329393,0.03947368421052633
1,455.5949566587865,0.03947368421052633
2,458.3924349881795,0.03947368421052633
3,461.189913317573,0.03947368421052633
4,463.987391646966,0.03947368421052633
5,466.78486997635946,0.03947368421052633
6,469.5823483057525,0.03947368421052633
7,472.37982663514595,0.03947368421052633
8,475.17730496453896,0.03947368421052633
9,477.97478329393243,0.03947368421052633
10,480.77226162332545,0.03947368421052633
11,483.56973995271846,0.03947368421052633
12,486.36721828211193,0.03947368421052633
13,489.16469661150495,0.03947368421052633
14,491.9621749408984,0.03947368421052633
15,494.75965327029144,0.03947368421052633
16,497.5571315996849,0.03947368421052633
17,500.3546099290779,0.03947368421052633
18,500.3546099290779,0.046052631578947345
19,503.1520882584714,0.046052631578947345
20,505.9495665878644,0.052631578947368474
21,505.9495665878644,0.046052631578947345
22,508.7470449172579,0.052631578947368474
23,508.7470449172579,0.05921052631578949
24,511.5445232466509,0.05921052631578949
25,514.3420015760439,0.05921052631578949
26,517.1394799054374,0.05921052631578949
27,519.9369582348304,0.05921052631578949
28,522.7344365642239,0.05921052631578949
29,525.5319148936169,0.05921052631578949
30,525.5319148936169,0.06578947368421051
31,528.3293932230104,0.06578947368421051
32,528.3293932230104,0.05921052631578949
33,531.1268715524034,0.06578947368421051
34,531.1268715524034,0.05921052631578949
35,533.9243498817968,0.05921052631578949
36,533.9243498817968,0.06578947368421051
37,536.7218282111899,0.05921052631578949
38,539.5193065405833,0.05921052631578949
39,542.3167848699763,0.05921052631578949
40,545.1142631993694,0.06578947368421051
41,545.1142631993694,0.05921052631578949
42,547.9117415287628,0.06578947368421051
43,547.9117415287628,0.07236842105263153
44,550.7092198581558,0.07236842105263153
45,550.7092198581558,0.07894736842105265
46,553.5066981875493,0.07894736842105265
47,553.5066981875493,0.08552631578947367
48,556.3041765169423,0.09210526315789469
49,556.3041765169423,0.08552631578947367
50,556.3041765169423,0.09868421052631582
51,559.1016548463358,0.09868421052631582
52,561.8991331757288,0.09868421052631582
53,561.8991331757288,0.10526315789473684
54,564.6966115051223,0.11184210526315785
55,564.6966115051223,0.10526315789473684
56,567.4940898345153,0.11842105263157898
57,567.4940898345153,0.11184210526315785
58,570.2915681639088,0.13157894736842102
59,570.2915681639088,0.11842105263157898
60,570.2915681639088,0.125
61,573.0890464933018,0.13157894736842102
62,573.0890464933018,0.13815789473684215
63,575.8865248226948,0.14473684210526316
64,575.8865248226948,0.1578947368421053
65,575.8865248226948,0.15131578947368418
66,575.8865248226948,0.13815789473684215
67,578.6840031520883,0.16447368421052633
68,578.6840031520883,0.1578947368421053
69,581.4814814814813,0.16447368421052633
70,581.4814814814813,0.17105263157894735
71,584.2789598108748,0.17105263157894735
72,587.0764381402678,0.16447368421052633
73,587.0764381402678,0.17105263157894735
74,589.8739164696613,0.16447368421052633
75,589.8739164696613,0.1578947368421053
76,589.8739164696613,0.15131578947368418
77,592.6713947990543,0.13815789473684215
78,592.6713947990543,0.15131578947368418
79,592.6713947990543,0.14473684210526316
80,595.4688731284477,0.11842105263157898
81,595.4688731284477,0.13157894736842102
82,595.4688731284477,0.11184210526315785
83,595.4688731284477,0.13815789473684215
84,595.4688731284477,0.125
85,598.2663514578408,0.10526315789473684
86,598.2663514578408,0.11184210526315785
87,601.0638297872342,0.10526315789473684
88,601.0638297872342,0.09868421052631582
89,601.0638297872342,0.08552631578947367
90,601.0638297872342,0.09210526315789469
91,603.8613081166272,0.08552631578947367
92,606.6587864460207,0.08552631578947367
93,609.4562647754137,0.08552631578947367
94,609.4562647754137,0.09210526315789469
95,612.2537431048067,0.09210526315789469
96,612.2537431048067,0.09868421052631582
97,612.2537431048067,0.10526315789473684
98,615.0512214342002,0.11184210526315785
99,615.0512214342002,0.10526315789473684
100,617.8486997635932,0.11184210526315785
101,617.8486997635932,0.11842105263157898
102,620.6461780929867,0.11842105263157898
103,620.6461780929867,0.125
104,620.6461780929867,0.13815789473684215
105,620.6461780929867,0.13157894736842102
106,623.4436564223797,0.13815789473684215
107,623.4436564223797,0.14473684210526316
108,623.4436564223797,0.15131578947368418
109,626.2411347517732,0.15131578947368418
110,629.0386130811662,0.14473684210526316
111,629.0386130811662,0.15131578947368418
112,631.8360914105597,0.14473684210526316
113,631.8360914105597,0.13815789473684215
114,634.6335697399527,0.13157894736842102
115,634.6335697399527,0.13815789473684215
116,637.4310480693462,0.13157894736842102
117,637.4310480693462,0.11842105263157898
118,637.4310480693462,0.125
119,637.4310480693462,0.11184210526315785
120,640.2285263987392,0.10526315789473684
121,640.2285263987392,0.11184210526315785
122,643.0260047281322,0.09210526315789469
123,643.0260047281322,0.09868421052631582
124,643.0260047281322,0.08552631578947367
125,643.0260047281322,0.07894736842105265
126,643.0260047281322,0.10526315789473684
127,645.8234830575257,0.07236842105263153
128,645.8234830575257,0.06578947368421051
129,645.8234830575257,0.07894736842105265
130,648.6209613869187,0.052631578947368474
131,648.6209613869187,0.05921052631578949
132,648.6209613869187,0.06578947368421051
133,651.4184397163122,0.052631578947368474
134,651.4184397163122,0.046052631578947345
135,651.4184397163122,0.03947368421052633
136,654.2159180457052,0.03289473684210531
137,654.2159180457052,0.03947368421052633
138,657.0133963750986,0.02631578947368418
139,657.0133963750986,0.03289473684210531
140,659.8108747044917,0.02631578947368418
141,662.6083530338851,0.02631578947368418
142,662.6083530338851,0.019736842105263164
143,665.4058313632781,0.019736842105263164
144,668.2033096926716,0.019736842105263164
145,671.0007880220646,0.019736842105263164
146,673.7982663514576,0.019736842105263164
147,676.5957446808511,0.019736842105263164
148,676.5957446808511,0.02631578947368418
149,679.3932230102441,0.019736842105263164
150,679.3932230102441,0.02631578947368418
151,682.1907013396376,0.019736842105263164
152,682.1907013396376,0.02631578947368418
153,684.9881796690306,0.02631578947368418
154,687.7856579984241,0.02631578947368418
155,690.5831363278171,0.02631578947368418
156,693.3806146572106,0.02631578947368418
157,696.1780929866036,0.02631578947368418
158,698.9755713159971,0.019736842105263164
159,701.7730496453901,0.019736842105263164
160,704.5705279747831,0.019736842105263164
161,707.3680063041766,0.019736842105263164
162,710.1654846335696,0.019736842105263164
163,712.962962962963,0.02631578947368418
164,712.962962962963,0.019736842105263164
165,715.7604412923561,0.03289473684210531
166,715.7604412923561,0.02631578947368418
167,718.5579196217495,0.052631578947368474
168,718.5579196217495,0.046052631578947345
169,718.5579196217495,0.03289473684210531
170,718.5579196217495,0.03947368421052633
171,721.3553979511425,0.052631578947368474
172,721.3553979511425,0.05921052631578949
173,721.3553979511425,0.06578947368421051
174,724.152876280536,0.06578947368421051
175,724.152876280536,0.08552631578947367
176,724.152876280536,0.07236842105263153
177,724.152876280536,0.07894736842105265
178,726.950354609929,0.08552631578947367
179,729.7478329393225,0.09210526315789469
180,729.7478329393225,0.08552631578947367
181,732.5453112687155,0.09210526315789469
182,732.5453112687155,0.08552631578947367
183,735.3427895981085,0.07894736842105265
184,735.3427895981085,0.08552631578947367
185,738.140267927502,0.06578947368421051
186,738.140267927502,0.07236842105263153
187,738.140267927502,0.07894736842105265
188,740.937746256895,0.06578947368421051
189,740.937746256895,0.05921052631578949
190,743.7352245862885,0.052631578947368474
191,743.7352245862885,0.05921052631578949
192,746.5327029156815,0.046052631578947345
193,746.5327029156815,0.052631578947368474
194,749.330181245075,0.046052631578947345
195,752.127659574468,0.046052631578947345
196,754.9251379038615,0.046052631578947345
197,757.7226162332545,0.046052631578947345
198,760.520094562648,0.052631578947368474
199,760.520094562648,0.046052631578947345
200,763.317572892041,0.052631578947368474
201,763.317572892041,0.05921052631578949
202,766.115051221434,0.06578947368421051
203,766.115051221434,0.05921052631578949
204,768.9125295508275,0.07236842105263153
205,768.9125295508275,0.06578947368421051
206,771.7100078802205,0.07236842105263153
207,774.507486209614,0.07236842105263153
208,777.304964539007,0.06578947368421051
209,777.304964539007,0.07236842105263153
210,780.1024428684004,0.06578947368421051
211,780.1024428684004,0.05921052631578949
212,782.8999211977934,0.05921052631578949
213,785.6973995271869,0.052631578947368474
214,785.6973995271869,0.05921052631578949
215,788.4948778565799,0.052631578947368474
216,791.2923561859734,0.052631578947368474
217,794.0898345153664,0.06578947368421051
218,794.0898345153664,0.052631578947368474
219,794.0898345153664,0.05921052631578949
220,796.8873128447594,0.06578947368421051
221,796.8873128447594,0.07236842105263153
222,799.6847911741529,0.09210526315789469
223,799.6847911741529,0.07894736842105265
224,799.6847911741529,0.08552631578947367
225,799.6847911741529,0.07236842105263153
226,802.4822695035459,0.09210526315789469
227,802.4822695035459,0.09868421052631582
228,805.2797478329394,0.09868421052631582
229,808.0772261623324,0.09868421052631582
230,810.8747044917259,0.09868421052631582
231,810.8747044917259,0.08552631578947367
232,810.8747044917259,0.09210526315789469
233,813.6721828211189,0.07894736842105265
234,813.6721828211189,0.08552631578947367
235,816.4696611505124,0.07236842105263153
236,816.4696611505124,0.07894736842105265
237,819.2671394799054,0.07236842105263153
238,822.0646178092989,0.07236842105263153
239,824.8620961386919,0.07236842105263153
240,824.8620961386919,0.07894736842105265
241,824.8620961386919,0.08552631578947367
242,827.6595744680849,0.09210526315789469
243,827.6595744680849,0.08552631578947367
244,830.4570527974784,0.09210526315789469
245,830.4570527974784,0.09868421052631582
246,833.2545311268714,0.09868421052631582
247,836.0520094562648,0.09868421052631582
248,838.8494877856579,0.09868421052631582
249,841.6469661150513,0.09868421052631582
250,841.6469661150513,0.09210526315789469
251,844.4444444444443,0.09210526315789469
252,847.2419227738378,0.09210526315789469
253,850.0394011032308,0.09210526315789469
254,850.0394011032308,0.08552631578947367
255,852.8368794326243,0.08552631578947367
256,855.6343577620173,0.08552631578947367
257,855.6343577620173,0.09210526315789469
258,858.4318360914103,0.09210526315789469
259,858.4318360914103,0.09868421052631582
260,861.2293144208038,0.11184210526315785
261,861.2293144208038,0.10526315789473684
262,861.2293144208038,0.11842105263157898
263,861.2293144208038,0.09868421052631582
264,864.0267927501968,0.125
265,864.0267927501968,0.11842105263157898
266,866.8242710795903,0.15131578947368418
267,866.8242710795903,0.13815789473684215
268,866.8242710795903,0.13157894736842102
269,866.8242710795903,0.125
270,866.8242710795903,0.14473684210526316
271,869.6217494089833,0.17105263157894735
272,869.6217494089833,0.1578947368421053
273,869.6217494089833,0.16447368421052633
274,869.6217494089833,0.15131578947368418
275,872.4192277383768,0.17105263157894735
276,872.4192277383768,0.1842105263157895
277,872.4192277383768,0.17763157894736847
278,875.2167060677698,0.1842105263157895
279,875.2167060677698,0.1907894736842105
280,875.2167060677698,0.19736842105263153
281,878.0141843971633,0.19736842105263153
282,880.8116627265563,0.19736842105263153
283,880.8116627265563,0.1907894736842105
284,883.6091410559497,0.1907894736842105
285,886.4066193853428,0.1842105263157895
286,886.4066193853428,0.1907894736842105
287,889.2040977147362,0.1842105263157895
288,892.0015760441293,0.1842105263157895
289,894.7990543735223,0.1842105263157895
290,897.5965327029157,0.1842105263157895
291,897.5965327029157,0.1907894736842105
292,897.5965327029157,0.19736842105263153
293,900.3940110323088,0.20394736842105265
294,900.3940110323088,0.19736842105263153
295,903.1914893617022,0.20394736842105265
296,905.9889676910952,0.20394736842105265
297,905.9889676910952,0.21052631578947367
298,908.7864460204887,0.21052631578947367
299,911.5839243498817,0.22368421052631582
300,911.5839243498817,0.2171052631578947
301,911.5839243498817,0.21052631578947367
302,914.3814026792752,0.22368421052631582
303,914.3814026792752,0.23026315789473684
304,917.1788810086682,0.23684210526315785
305,917.1788810086682,0.24342105263157898
306,917.1788810086682,0.23026315789473684
307,919.9763593380617,0.25
308,919.9763593380617,0.24342105263157898
309,922.7738376674547,0.256578947368421
310,922.7738376674547,0.26973684210526316
311,922.7738376674547,0.26315789473684215
312,922.7738376674547,0.25
313,925.5713159968477,0.26973684210526316
314,925.5713159968477,0.2763157894736842
315,928.3687943262412,0.2763157894736842
316,928.3687943262412,0.2894736842105263
317,928.3687943262412,0.2828947368421053
318,931.1662726556342,0.2894736842105263
319,931.1662726556342,0.3026315789473685
320,931.1662726556342,0.29605263157894735
321,933.9637509850277,0.3026315789473685
322,936.7612293144207,0.3026315789473685
323,936.7612293144207,0.29605263157894735
324,939.5587076438142,0.2894736842105263
325,939.5587076438142,0.29605263157894735
326,942.3561859732072,0.26973684210526316
327,942.3561859732072,0.2894736842105263
328,942.3561859732072,0.2763157894736842
329,942.3561859732072,0.2828947368421053
330,945.1536643026006,0.26315789473684215
331,945.1536643026006,0.26973684210526316
332,945.1536643026006,0.256578947368421
333,947.9511426319937,0.23026315789473684
334,947.9511426319937,0.25
335,947.9511426319937,0.256578947368421
336,947.9511426319937,0.23684210526315785
337,947.9511426319937,0.24342105263157898
338,947.9511426319937,0.22368421052631582
339,950.7486209613871,0.22368421052631582
340,950.7486209613871,0.2171052631578947
341,950.7486209613871,0.21052631578947367
342,953.5460992907801,0.17763157894736847
343,953.5460992907801,0.21052631578947367
344,953.5460992907801,0.19736842105263153
345,953.5460992907801,0.1907894736842105
346,953.5460992907801,0.20394736842105265
347,953.5460992907801,0.1842105263157895
348,956.3435776201732,0.17763157894736847
349,956.3435776201732,0.17105263157894735
350,959.1410559495666,0.17105263157894735
351,959.1410559495666,0.1578947368421053
352,959.1410559495666,0.16447368421052633
353,961.9385342789597,0.15131578947368418
354,961.9385342789597,0.13815789473684215
355,961.9385342789597,0.14473684210526316
356,961.9385342789597,0.1578947368421053
357,964.7360126083531,0.13157894736842102
358,964.7360126083531,0.13815789473684215
359,967.5334909377461,0.125
360,967.5334909377461,0.13157894736842102
361,970.3309692671396,0.125
362,973.1284475965326,0.13157894736842102
363,973.1284475965326,0.125
364,975.9259259259261,0.13157894736842102
365,975.9259259259261,0.13815789473684215
366,978.7234042553191,0.13815789473684215
367,978.7234042553191,0.15131578947368418
368,978.7234042553191,0.14473684210526316
369,981.5208825847126,0.15131578947368418
370,984.3183609141056,0.1578947368421053
371,984.3183609141056,0.15131578947368418
372,987.1158392434986,0.16447368421052633
373,987.1158392434986,0.17105263157894735
374,987.1158392434986,0.1578947368421053
375,989.9133175728921,0.17763157894736847
376,989.9133175728921,0.17105263157894735
377,992.7107959022851,0.17763157894736847
378,995.5082742316786,0.17763157894736847
379,998.3057525610716,0.17763157894736847
380,998.3057525610716,0.17105263157894735
381,1001.103230890465,0.17763157894736847
382,1001.103230890465,0.17105263157894735
383,1003.9007092198581,0.1842105263157895
384,1003.9007092198581,0.17763157894736847
385,1006.6981875492515,0.1842105263157895
386,1006.6981875492515,0.1907894736842105
387,1006.6981875492515,0.19736842105263153
388,1009.4956658786446,0.19736842105263153
389,1009.4956658786446,0.21052631578947367
390,1009.4956658786446,0.20394736842105265
391,1012.293144208038,0.21052631578947367
392,1012.293144208038,0.2171052631578947
393,1015.090622537431,0.2171052631578947
394,1015.090622537431,0.22368421052631582
395,1017.8881008668241,0.23026315789473684
396,1017.8881008668241,0.24342105263157898
397,1017.8881008668241,0.23684210526315785
398,1017.8881008668241,0.22368421052631582
399,1020.6855791962175,0.25
400,1020.6855791962175,0.24342105263157898
401,1023.4830575256105,0.25
402,1023.4830575256105,0.2763157894736842
403,1023.4830575256105,0.26315789473684215
404,1023.4830575256105,0.26973684210526316
405,1023.4830575256105,0.256578947368421
406,1026.280535855004,0.2828947368421053
407,1026.280535855004,0.2763157894736842
408,1029.078014184397,0.2828947368421053
409,1029.078014184397,0.29605263157894735
410,1029.078014184397,0.2894736842105263
411,1029.078014184397,0.3026315789473685
412,1031.8754925137905,0.3157894736842105
413,1031.8754925137905,0.3026315789473685
414,1031.8754925137905,0.3092105263157895
415,1034.6729708431835,0.3223684210526315
416,1034.6729708431835,0.3157894736842105
417,1034.6729708431835,0.3355263157894737
418,1034.6729708431835,0.32894736842105265
419,1037.470449172577,0.3486842105263158
420,1037.470449172577,0.3421052631578947
421,1037.470449172577,0.3355263157894737
422,1040.26792750197,0.3486842105263158
423,1040.26792750197,0.35526315789473684
424,1040.26792750197,0.368421052631579
425,1040.26792750197,0.36184210526315785
426,1043.0654058313635,0.375
427,1043.0654058313635,0.368421052631579
428,1045.8628841607565,0.375
429,1045.8628841607565,0.39473684210526316
430,1045.8628841607565,0.38815789473684215
431,1045.8628841607565,0.381578947368421
432,1048.6603624901495,0.4144736842105263
433,1048.6603624901495,0.4078947368421053
434,1048.6603624901495,0.4013157894736842
435,1048.6603624901495,0.42105263157894735
436,1048.6603624901495,0.39473684210526316
437,1051.457840819543,0.4342105263157895
438,1051.457840819543,0.4276315789473685
439,1051.457840819543,0.42105263157894735
440,1051.457840819543,0.4407894736842105
441,1054.255319148936,0.4473684210526315
442,1054.255319148936,0.4605263157894737
443,1054.255319148936,0.4407894736842105
444,1054.255319148936,0.45394736842105265
445,1057.0527974783295,0.4605263157894737
446,1057.0527974783295,0.4671052631578947
447,1059.8502758077225,0.4671052631578947
448,1062.647754137116,0.4605263157894737
449,1062.647754137116,0.4671052631578947
450,1065.445232466509,0.4605263157894737
451,1065.445232466509,0.45394736842105265
452,1068.2427107959024,0.45394736842105265
453,1071.0401891252955,0.45394736842105265
454,1073.837667454689,0.4473684210526315
455,1073.837667454689,0.45394736842105265
456,1076.635145784082,0.4473684210526315
457,1079.432624113475,0.4473684210526315
458,1082.2301024428684,0.4473684210526315
459,1085.0275807722614,0.4473684210526315
460,1087.825059101655,0.4473684210526315
461,1090.622537431048,0.4407894736842105
462,1090.622537431048,0.4473684210526315
463,1090.622537431048,0.4342105263157895
464,1093.4200157604414,0.4342105263157895
465,1093.4200157604414,0.42105263157894735
466,1093.4200157604414,0.4276315789473685
467,1096.2174940898344,0.4078947368421053
468,1096.2174940898344,0.4013157894736842
469,1096.2174940898344,0.4144736842105263
470,1096.2174940898344,0.42105263157894735
471,1099.014972419228,0.39473684210526316
472,1099.014972419228,0.4013157894736842
