,wavenumbers,absorbance
0,452.797478329393,0.02631578947368418
1,455.5949566587865,0.02631578947368418
2,458.3924349881795,0.02631578947368418
3,458.3924349881795,0.03289473684210531
4,461.189913317573,0.02631578947368418
5,461.189913317573,0.03289473684210531
6,463.987391646966,0.02631578947368418
7,466.78486997635946,0.02631578947368418
8,469.5823483057525,0.02631578947368418
9,472.37982663514595,0.02631578947368418
10,475.17730496453896,0.02631578947368418
11,477.97478329393243,0.02631578947368418
12,477.97478329393243,0.019736842105263164
13,480.77226162332545,0.019736842105263164
14,483.56973995271846,0.019736842105263164
15,486.36721828211193,0.019736842105263164
16,489.16469661150495,0.019736842105263164
17,491.9621749408984,0.019736842105263164
18,494.75965327029144,0.019736842105263164
19,497.5571315996849,0.019736842105263164
20,500.3546099290779,0.019736842105263164
21,503.1520882584714,0.019736842105263164
22,505.9495665878644,0.019736842105263164
23,508.7470449172579,0.019736842105263164
24,511.5445232466509,0.019736842105263164
25,514.3420015760439,0.019736842105263164
26,517.1394799054374,0.019736842105263164
27,519.9369582348304,0.019736842105263164
28,522.7344365642239,0.019736842105263164
29,525.5319148936169,0.019736842105263164
30,528.3293932230104,0.019736842105263164
31,531.1268715524034,0.019736842105263164
32,533.9243498817968,0.019736842105263164
33,536.7218282111899,0.019736842105263164
34,539.5193065405833,0.019736842105263164
35,542.3167848699763,0.019736842105263164
36,545.1142631993694,0.019736842105263164
37,547.9117415287628,0.019736842105263164
38,550.7092198581558,0.019736842105263164
39,553.5066981875493,0.019736842105263164
40,556.3041765169423,0.019736842105263164
41,559.1016548463358,0.019736842105263164
42,561.8991331757288,0.019736842105263164
43,564.6966115051223,0.02631578947368418
44,564.6966115051223,0.019736842105263164
45,567.4940898345153,0.02631578947368418
46,570.2915681639088,0.02631578947368418
47,573.0890464933018,0.02631578947368418
48,575.8865248226948,0.02631578947368418
49,578.6840031520883,0.02631578947368418
50,581.4814814814813,0.02631578947368418
51,581.4814814814813,0.03289473684210531
52,584.2789598108748,0.03289473684210531
53,587.0764381402678,0.03289473684210531
54,589.8739164696613,0.03289473684210531
55,592.6713947990543,0.03289473684210531
56,592.6713947990543,0.03947368421052633
57,595.4688731284477,0.03947368421052633
58,598.2663514578408,0.03947368421052633
59,601.0638297872342,0.046052631578947345
60,601.0638297872342,0.03947368421052633
61,603.8613081166272,0.046052631578947345
62,606.6587864460207,0.046052631578947345
63,606.6587864460207,0.052631578947368474
64,609.4562647754137,0.052631578947368474
65,612.2537431048067,0.052631578947368474
66,615.0512214342002,0.052631578947368474
67,617.8486997635932,0.05921052631578949
68,617.8486997635932,0.052631578947368474
69,620.6461780929867,0.05921052631578949
70,623.4436564223797,0.05921052631578949
71,626.2411347517732,0.05921052631578949
72,626.2411347517732,0.06578947368421051
73,629.0386130811662,0.06578947368421051
74,631.8360914105597,0.06578947368421051
75,631.8360914105597,0.07236842105263153
76,634.6335697399527,0.07236842105263153
77,637.4310480693462,0.07236842105263153
78,640.2285263987392,0.07236842105263153
79,643.0260047281322,0.07236842105263153
80,645.8234830575257,0.07236842105263153
81,648.6209613869187,0.07236842105263153
82,648.6209613869187,0.06578947368421051
83,651.4184397163122,0.06578947368421051
84,654.2159180457052,0.06578947368421051
85,654.2159180457052,0.05921052631578949
86,657.0133963750986,0.052631578947368474
87,657.0133963750986,0.05921052631578949
88,659.8108747044917,0.052631578947368474
89,659.8108747044917,0.046052631578947345
90,662.6083530338851,0.03947368421052633
91,662.6083530338851,0.046052631578947345
92,665.4058313632781,0.03947368421052633
93,668.2033096926716,0.03947368421052633
94,668.2033096926716,0.03289473684210531
95,671.0007880220646,0.03289473684210531
96,673.7982663514576,0.02631578947368418
97,673.7982663514576,0.03289473684210531
98,676.5957446808511,0.02631578947368418
99,679.3932230102441,0.02631578947368418
100,682.1907013396376,0.02631578947368418
101,684.9881796690306,0.02631578947368418
102,687.7856579984241,0.02631578947368418
103,690.5831363278171,0.02631578947368418
104,693.3806146572106,0.02631578947368418
105,696.1780929866036,0.02631578947368418
106,698.9755713159971,0.02631578947368418
107,701.7730496453901,0.02631578947368418
108,704.5705279747831,0.02631578947368418
109,707.3680063041766,0.02631578947368418
110,710.1654846335696,0.02631578947368418
111,712.962962962963,0.02631578947368418
112,715.7604412923561,0.02631578947368418
113,718.5579196217495,0.02631578947368418
114,721.3553979511425,0.02631578947368418
115,724.152876280536,0.02631578947368418
116,726.950354609929,0.03289473684210531
117,726.950354609929,0.02631578947368418
118,729.7478329393225,0.03947368421052633
119,729.7478329393225,0.03289473684210531
120,732.5453112687155,0.03947368421052633
121,732.5453112687155,0.046052631578947345
122,732.5453112687155,0.052631578947368474
123,735.3427895981085,0.052631578947368474
124,738.140267927502,0.046052631578947345
125,738.140267927502,0.052631578947368474
126,740.937746256895,0.046052631578947345
127,743.7352245862885,0.03947368421052633
128,743.7352245862885,0.046052631578947345
129,746.5327029156815,0.03289473684210531
130,746.5327029156815,0.03947368421052633
131,749.330181245075,0.03289473684210531
132,752.127659574468,0.03289473684210531
133,752.127659574468,0.02631578947368418
134,754.9251379038615,0.02631578947368418
135,757.7226162332545,0.02631578947368418
136,760.520094562648,0.02631578947368418
137,763.317572892041,0.02631578947368418
138,766.115051221434,0.02631578947368418
139,768.9125295508275,0.02631578947368418
140,768.9125295508275,0.019736842105263164
141,771.7100078802205,0.019736842105263164
142,774.507486209614,0.019736842105263164
143,777.304964539007,0.019736842105263164
144,780.1024428684004,0.019736842105263164
145,782.8999211977934,0.019736842105263164
146,785.6973995271869,0.019736842105263164
147,788.4948778565799,0.019736842105263164
148,791.2923561859734,0.019736842105263164
149,794.0898345153664,0.019736842105263164
150,796.8873128447594,0.019736842105263164
151,799.6847911741529,0.02631578947368418
152,799.6847911741529,0.019736842105263164
153,802.4822695035459,0.03289473684210531
154,802.4822695035459,0.02631578947368418
155,805.2797478329394,0.06578947368421051
156,805.2797478329394,0.07894736842105265
157,805.2797478329394,0.03289473684210531
158,805.2797478329394,0.03947368421052633
159,805.2797478329394,0.08552631578947367
160,805.2797478329394,0.07236842105263153
161,805.2797478329394,0.05921052631578949
162,805.2797478329394,0.046052631578947345
163,805.2797478329394,0.052631578947368474
164,808.0772261623324,0.11842105263157898
165,808.0772261623324,0.125
166,808.0772261623324,0.1578947368421053
167,808.0772261623324,0.14473684210526316
168,808.0772261623324,0.16447368421052633
169,808.0772261623324,0.17105263157894735
170,808.0772261623324,0.11184210526315785
171,808.0772261623324,0.09210526315789469
172,808.0772261623324,0.10526315789473684
173,808.0772261623324,0.08552631578947367
174,808.0772261623324,0.15131578947368418
175,808.0772261623324,0.13157894736842102
176,808.0772261623324,0.13815789473684215
177,808.0772261623324,0.09868421052631582
178,810.8747044917259,0.16447368421052633
179,810.8747044917259,0.19736842105263153
180,810.8747044917259,0.1907894736842105
181,810.8747044917259,0.1578947368421053
182,810.8747044917259,0.17105263157894735
183,810.8747044917259,0.17763157894736847
184,810.8747044917259,0.1842105263157895
185,813.6721828211189,0.1578947368421053
186,813.6721828211189,0.11184210526315785
187,813.6721828211189,0.09868421052631582
188,813.6721828211189,0.15131578947368418
189,813.6721828211189,0.11842105263157898
190,813.6721828211189,0.09210526315789469
191,813.6721828211189,0.10526315789473684
192,813.6721828211189,0.14473684210526316
193,813.6721828211189,0.13815789473684215
194,813.6721828211189,0.125
195,813.6721828211189,0.13157894736842102
196,816.4696611505124,0.06578947368421051
197,816.4696611505124,0.08552631578947367
198,816.4696611505124,0.05921052631578949
199,816.4696611505124,0.09210526315789469
200,816.4696611505124,0.07894736842105265
201,816.4696611505124,0.052631578947368474
202,816.4696611505124,0.07236842105263153
203,819.2671394799054,0.052631578947368474
204,819.2671394799054,0.046052631578947345
205,822.0646178092989,0.046052631578947345
206,822.0646178092989,0.03947368421052633
207,824.8620961386919,0.03289473684210531
208,824.8620961386919,0.03947368421052633
209,827.6595744680849,0.02631578947368418
210,827.6595744680849,0.03289473684210531
211,830.4570527974784,0.02631578947368418
212,833.2545311268714,0.019736842105263164
213,833.2545311268714,0.02631578947368418
214,836.0520094562648,0.019736842105263164
215,838.8494877856579,0.019736842105263164
216,841.6469661150513,0.019736842105263164
217,841.6469661150513,0.03289473684210531
218,841.6469661150513,0.02631578947368418
219,844.4444444444443,0.03947368421052633
220,844.4444444444443,0.03289473684210531
221,847.2419227738378,0.03947368421052633
222,847.2419227738378,0.046052631578947345
223,850.0394011032308,0.046052631578947345
224,850.0394011032308,0.05921052631578949
225,850.0394011032308,0.052631578947368474
226,850.0394011032308,0.06578947368421051
227,852.8368794326243,0.06578947368421051
228,852.8368794326243,0.07236842105263153
229,852.8368794326243,0.07894736842105265
230,855.6343577620173,0.08552631578947367
231,855.6343577620173,0.11184210526315785
232,855.6343577620173,0.09210526315789469
233,855.6343577620173,0.09868421052631582
234,855.6343577620173,0.10526315789473684
235,855.6343577620173,0.07894736842105265
236,858.4318360914103,0.125
237,858.4318360914103,0.11184210526315785
238,858.4318360914103,0.11842105263157898
239,861.2293144208038,0.13157894736842102
240,861.2293144208038,0.125
241,861.2293144208038,0.14473684210526316
242,861.2293144208038,0.13815789473684215
243,864.0267927501968,0.15131578947368418
244,864.0267927501968,0.14473684210526316
245,866.8242710795903,0.15131578947368418
246,869.6217494089833,0.15131578947368418
247,872.4192277383768,0.14473684210526316
248,872.4192277383768,0.15131578947368418
249,875.2167060677698,0.13815789473684215
250,875.2167060677698,0.14473684210526316
251,875.2167060677698,0.13157894736842102
252,878.0141843971633,0.125
253,878.0141843971633,0.13157894736842102
254,880.8116627265563,0.11842105263157898
255,880.8116627265563,0.125
256,880.8116627265563,0.11184210526315785
257,883.6091410559497,0.10526315789473684
258,883.6091410559497,0.11184210526315785
259,886.4066193853428,0.10526315789473684
260,886.4066193853428,0.09868421052631582
261,889.2040977147362,0.09868421052631582
262,892.0015760441293,0.09868421052631582
263,892.0015760441293,0.09210526315789469
264,892.0015760441293,0.08552631578947367
265,894.7990543735223,0.08552631578947367
266,894.7990543735223,0.07894736842105265
267,897.5965327029157,0.07894736842105265
268,897.5965327029157,0.08552631578947367
269,900.3940110323088,0.09210526315789469
270,900.3940110323088,0.08552631578947367
271,903.1914893617022,0.09868421052631582
272,903.1914893617022,0.09210526315789469
273,905.9889676910952,0.10526315789473684
274,905.9889676910952,0.11184210526315785
275,905.9889676910952,0.11842105263157898
276,905.9889676910952,0.09868421052631582
277,908.7864460204887,0.11842105263157898
278,908.7864460204887,0.125
279,911.5839243498817,0.13815789473684215
280,911.5839243498817,0.13157894736842102
281,911.5839243498817,0.125
282,914.3814026792752,0.13815789473684215
283,917.1788810086682,0.14473684210526316
284,917.1788810086682,0.13815789473684215
285,917.1788810086682,0.15131578947368418
286,919.9763593380617,0.16447368421052633
287,919.9763593380617,0.1578947368421053
288,919.9763593380617,0.15131578947368418
289,922.7738376674547,0.17763157894736847
290,922.7738376674547,0.16447368421052633
291,922.7738376674547,0.1842105263157895
292,922.7738376674547,0.17105263157894735
293,922.7738376674547,0.1907894736842105
294,925.5713159968477,0.19736842105263153
295,925.5713159968477,0.20394736842105265
296,925.5713159968477,0.1907894736842105
297,928.3687943262412,0.20394736842105265
298,928.3687943262412,0.21052631578947367
299,931.1662726556342,0.21052631578947367
300,931.1662726556342,0.20394736842105265
301,933.9637509850277,0.19736842105263153
302,933.9637509850277,0.20394736842105265
303,936.7612293144207,0.1842105263157895
304,936.7612293144207,0.1907894736842105
305,936.7612293144207,0.19736842105263153
306,939.5587076438142,0.17763157894736847
307,939.5587076438142,0.1842105263157895
308,942.3561859732072,0.17763157894736847
309,942.3561859732072,0.17105263157894735
310,945.1536643026006,0.16447368421052633
311,945.1536643026006,0.17105263157894735
312,947.9511426319937,0.16447368421052633
313,950.7486209613871,0.16447368421052633
314,953.5460992907801,0.16447368421052633
315,953.5460992907801,0.17105263157894735
316,956.3435776201732,0.17105263157894735
317,956.3435776201732,0.17763157894736847
318,959.1410559495666,0.1842105263157895
319,959.1410559495666,0.17763157894736847
320,961.9385342789597,0.1842105263157895
321,961.9385342789597,0.1907894736842105
322,961.9385342789597,0.19736842105263153
323,964.7360126083531,0.19736842105263153
324,964.7360126083531,0.20394736842105265
325,964.7360126083531,0.21052631578947367
326,967.5334909377461,0.23026315789473684
327,967.5334909377461,0.23684210526315785
328,967.5334909377461,0.2171052631578947
329,967.5334909377461,0.24342105263157898
330,967.5334909377461,0.21052631578947367
331,967.5334909377461,0.22368421052631582
332,970.3309692671396,0.24342105263157898
333,970.3309692671396,0.256578947368421
334,970.3309692671396,0.25
335,973.1284475965326,0.2828947368421053
336,973.1284475965326,0.2894736842105263
337,973.1284475965326,0.26315789473684215
338,973.1284475965326,0.29605263157894735
339,973.1284475965326,0.256578947368421
340,973.1284475965326,0.2763157894736842
341,973.1284475965326,0.26973684210526316
342,975.9259259259261,0.3092105263157895
343,975.9259259259261,0.29605263157894735
344,975.9259259259261,0.3026315789473685
345,978.7234042553191,0.3486842105263158
346,978.7234042553191,0.3421052631578947
347,978.7234042553191,0.3223684210526315
348,978.7234042553191,0.3092105263157895
349,978.7234042553191,0.3355263157894737
350,978.7234042553191,0.32894736842105265
351,978.7234042553191,0.3157894736842105
352,981.5208825847126,0.3486842105263158
353,981.5208825847126,0.35526315789473684
354,981.5208825847126,0.36184210526315785
355,984.3183609141056,0.375
356,984.3183609141056,0.36184210526315785
357,984.3183609141056,0.368421052631579
358,987.1158392434986,0.375
359,989.9133175728921,0.375
360,992.7107959022851,0.375
361,995.5082742316786,0.375
362,998.3057525610716,0.375
363,998.3057525610716,0.381578947368421
364,998.3057525610716,0.38815789473684215
365,1001.103230890465,0.39473684210526316
366,1001.103230890465,0.38815789473684215
367,1003.9007092198581,0.39473684210526316
368,1003.9007092198581,0.4013157894736842
369,1003.9007092198581,0.4144736842105263
370,1003.9007092198581,0.4078947368421053
371,1003.9007092198581,0.4276315789473685
372,1003.9007092198581,0.42105263157894735
373,1006.6981875492515,0.4407894736842105
374,1006.6981875492515,0.4276315789473685
375,1006.6981875492515,0.4342105263157895
376,1009.4956658786446,0.4407894736842105
377,1009.4956658786446,0.4473684210526315
378,1012.293144208038,0.4473684210526315
379,1015.090622537431,0.4473684210526315
380,1017.8881008668241,0.45394736842105265
381,1017.8881008668241,0.4605263157894737
382,1017.8881008668241,0.4473684210526315
383,1020.6855791962175,0.4671052631578947
384,1020.6855791962175,0.4605263157894737
385,1023.4830575256105,0.48026315789473684
386,1023.4830575256105,0.4736842105263158
387,1023.4830575256105,0.4671052631578947
388,1026.280535855004,0.4736842105263158
389,1026.280535855004,0.48026315789473684
390,1029.078014184397,0.4671052631578947
391,1029.078014184397,0.4605263157894737
392,1029.078014184397,0.4736842105263158
393,1029.078014184397,0.45394736842105265
394,1031.8754925137905,0.4407894736842105
395,1031.8754925137905,0.45394736842105265
396,1031.8754925137905,0.4473684210526315
397,1034.6729708431835,0.42105263157894735
398,1034.6729708431835,0.4342105263157895
399,1034.6729708431835,0.4407894736842105
400,1034.6729708431835,0.4276315789473685
401,1037.470449172577,0.4144736842105263
402,1037.470449172577,0.42105263157894735
403,1040.26792750197,0.4078947368421053
404,1040.26792750197,0.4144736842105263
405,1040.26792750197,0.4013157894736842
406,1043.0654058313635,0.4013157894736842
407,1043.0654058313635,0.39473684210526316
408,1045.8628841607565,0.38815789473684215
409,1045.8628841607565,0.39473684210526316
410,1048.6603624901495,0.375
411,1048.6603624901495,0.38815789473684215
412,1048.6603624901495,0.36184210526315785
413,1048.6603624901495,0.368421052631579
414,1048.6603624901495,0.381578947368421
415,1048.6603624901495,0.35526315789473684
416,1051.457840819543,0.3421052631578947
417,1051.457840819543,0.3486842105263158
418,1051.457840819543,0.35526315789473684
419,1054.255319148936,0.3355263157894737
420,1054.255319148936,0.32894736842105265
421,1054.255319148936,0.3421052631578947
422,1057.0527974783295,0.3157894736842105
423,1057.0527974783295,0.32894736842105265
424,1057.0527974783295,0.3223684210526315
425,1059.8502758077225,0.3157894736842105
426,1059.8502758077225,0.3092105263157895
427,1062.647754137116,0.3092105263157895
428,1065.445232466509,0.3223684210526315
429,1065.445232466509,0.3092105263157895
430,1065.445232466509,0.3157894736842105
431,1068.2427107959024,0.3421052631578947
432,1068.2427107959024,0.3486842105263158
433,1068.2427107959024,0.3223684210526315
434,1068.2427107959024,0.32894736842105265
435,1068.2427107959024,0.3355263157894737
436,1071.0401891252955,0.375
437,1071.0401891252955,0.36184210526315785
438,1071.0401891252955,0.35526315789473684
439,1071.0401891252955,0.368421052631579
440,1071.0401891252955,0.3486842105263158
441,1073.837667454689,0.4342105263157895
442,1073.837667454689,0.4078947368421053
443,1073.837667454689,0.4407894736842105
444,1073.837667454689,0.381578947368421
445,1073.837667454689,0.4144736842105263
446,1073.837667454689,0.4276315789473685
447,1073.837667454689,0.4013157894736842
448,1073.837667454689,0.42105263157894735
449,1073.837667454689,0.39473684210526316
450,1073.837667454689,0.375
451,1073.837667454689,0.38815789473684215
452,1076.635145784082,0.4671052631578947
453,1076.635145784082,0.4473684210526315
454,1076.635145784082,0.4605263157894737
455,1076.635145784082,0.45394736842105265
456,1076.635145784082,0.4407894736842105
457,1076.635145784082,0.4736842105263158
458,1079.432624113475,0.5197368421052632
459,1079.432624113475,0.5
460,1079.432624113475,0.5263157894736843
461,1079.432624113475,0.4736842105263158
462,1079.432624113475,0.48026315789473684
463,1079.432624113475,0.506578947368421
464,1079.432624113475,0.513157894736842
465,1079.432624113475,0.493421052631579
466,1079.432624113475,0.5394736842105263
467,1079.432624113475,0.5328947368421053
468,1079.432624113475,0.48684210526315785
469,1082.2301024428684,0.5394736842105263
470,1082.2301024428684,0.5460526315789473
471,1082.2301024428684,0.5592105263157895
472,1082.2301024428684,0.5657894736842105
