,wavenumbers,absorbance
0,452.797478329393,0.019736842105263164
1,452.797478329393,0.02631578947368418
2,455.5949566587865,0.019736842105263164
3,458.3924349881795,0.02631578947368418
4,458.3924349881795,0.019736842105263164
5,461.189913317573,0.019736842105263164
6,461.189913317573,0.02631578947368418
7,463.987391646966,0.02631578947368418
8,463.987391646966,0.019736842105263164
9,466.78486997635946,0.019736842105263164
10,469.5823483057525,0.019736842105263164
11,472.37982663514595,0.019736842105263164
12,475.17730496453896,0.019736842105263164
13,477.97478329393243,0.019736842105263164
14,480.77226162332545,0.019736842105263164
15,483.56973995271846,0.019736842105263164
16,486.36721828211193,0.019736842105263164
17,489.16469661150495,0.019736842105263164
18,491.9621749408984,0.019736842105263164
19,491.9621749408984,0.02631578947368418
20,494.75965327029144,0.02631578947368418
21,497.5571315996849,0.02631578947368418
22,500.3546099290779,0.02631578947368418
23,503.1520882584714,0.02631578947368418
24,505.9495665878644,0.02631578947368418
25,508.7470449172579,0.02631578947368418
26,508.7470449172579,0.03289473684210531
27,511.5445232466509,0.03289473684210531
28,514.3420015760439,0.03289473684210531
29,517.1394799054374,0.03289473684210531
30,519.9369582348304,0.03289473684210531
31,522.7344365642239,0.03947368421052633
32,522.7344365642239,0.03289473684210531
33,525.5319148936169,0.03947368421052633
34,528.3293932230104,0.03947368421052633
35,531.1268715524034,0.03947368421052633
36,533.9243498817968,0.046052631578947345
37,533.9243498817968,0.03947368421052633
38,536.7218282111899,0.046052631578947345
39,539.5193065405833,0.046052631578947345
40,542.3167848699763,0.046052631578947345
41,545.1142631993694,0.046052631578947345
42,547.9117415287628,0.046052631578947345
43,550.7092198581558,0.046052631578947345
44,553.5066981875493,0.046052631578947345
45,556.3041765169423,0.046052631578947345
46,559.1016548463358,0.046052631578947345
47,561.8991331757288,0.046052631578947345
48,564.6966115051223,0.046052631578947345
49,567.4940898345153,0.046052631578947345
50,570.2915681639088,0.052631578947368474
51,570.2915681639088,0.046052631578947345
52,573.0890464933018,0.052631578947368474
53,575.8865248226948,0.052631578947368474
54,578.6840031520883,0.052631578947368474
55,581.4814814814813,0.052631578947368474
56,581.4814814814813,0.05921052631578949
57,584.2789598108748,0.05921052631578949
58,587.0764381402678,0.05921052631578949
59,589.8739164696613,0.05921052631578949
60,592.6713947990543,0.05921052631578949
61,595.4688731284477,0.05921052631578949
62,595.4688731284477,0.052631578947368474
63,598.2663514578408,0.052631578947368474
64,601.0638297872342,0.046052631578947345
65,601.0638297872342,0.052631578947368474
66,603.8613081166272,0.046052631578947345
67,606.6587864460207,0.046052631578947345
68,609.4562647754137,0.046052631578947345
69,612.2537431048067,0.046052631578947345
70,612.2537431048067,0.052631578947368474
71,615.0512214342002,0.052631578947368474
72,617.8486997635932,0.052631578947368474
73,620.6461780929867,0.046052631578947345
74,620.6461780929867,0.052631578947368474
75,623.4436564223797,0.046052631578947345
76,626.2411347517732,0.046052631578947345
77,626.2411347517732,0.03947368421052633
78,629.0386130811662,0.03947368421052633
79,631.8360914105597,0.03947368421052633
80,634.6335697399527,0.03947368421052633
81,637.4310480693462,0.03947368421052633
82,640.2285263987392,0.03947368421052633
83,643.0260047281322,0.03947368421052633
84,643.0260047281322,0.03289473684210531
85,645.8234830575257,0.03289473684210531
86,648.6209613869187,0.03289473684210531
87,651.4184397163122,0.03289473684210531
88,654.2159180457052,0.03289473684210531
89,657.0133963750986,0.03947368421052633
90,657.0133963750986,0.03289473684210531
91,659.8108747044917,0.03947368421052633
92,662.6083530338851,0.03947368421052633
93,665.4058313632781,0.03947368421052633
94,668.2033096926716,0.03947368421052633
95,671.0007880220646,0.03947368421052633
96,673.7982663514576,0.03947368421052633
97,676.5957446808511,0.03947368421052633
98,679.3932230102441,0.03947368421052633
99,682.1907013396376,0.03947368421052633
100,684.9881796690306,0.046052631578947345
101,684.9881796690306,0.03947368421052633
102,687.7856579984241,0.046052631578947345
103,690.5831363278171,0.046052631578947345
104,693.3806146572106,0.046052631578947345
105,696.1780929866036,0.046052631578947345
106,698.9755713159971,0.052631578947368474
107,698.9755713159971,0.046052631578947345
108,701.7730496453901,0.052631578947368474
109,704.5705279747831,0.052631578947368474
110,707.3680063041766,0.052631578947368474
111,707.3680063041766,0.05921052631578949
112,710.1654846335696,0.06578947368421051
113,710.1654846335696,0.05921052631578949
114,712.962962962963,0.07236842105263153
115,712.962962962963,0.06578947368421051
116,715.7604412923561,0.07236842105263153
117,715.7604412923561,0.07894736842105265
118,718.5579196217495,0.07894736842105265
119,718.5579196217495,0.08552631578947367
120,721.3553979511425,0.08552631578947367
121,724.152876280536,0.08552631578947367
122,726.950354609929,0.08552631578947367
123,729.7478329393225,0.08552631578947367
124,729.7478329393225,0.09210526315789469
125,732.5453112687155,0.09210526315789469
126,735.3427895981085,0.09210526315789469
127,735.3427895981085,0.09868421052631582
128,738.140267927502,0.09868421052631582
129,738.140267927502,0.10526315789473684
130,740.937746256895,0.11184210526315785
131,740.937746256895,0.10526315789473684
132,743.7352245862885,0.11184210526315785
133,746.5327029156815,0.11184210526315785
134,746.5327029156815,0.11842105263157898
135,749.330181245075,0.11842105263157898
136,752.127659574468,0.11842105263157898
137,752.127659574468,0.125
138,754.9251379038615,0.125
139,757.7226162332545,0.125
140,760.520094562648,0.125
141,763.317572892041,0.125
142,766.115051221434,0.125
143,768.9125295508275,0.125
144,771.7100078802205,0.125
145,774.507486209614,0.13157894736842102
146,774.507486209614,0.125
147,777.304964539007,0.13157894736842102
148,780.1024428684004,0.13157894736842102
149,780.1024428684004,0.13815789473684215
150,782.8999211977934,0.13815789473684215
151,785.6973995271869,0.13815789473684215
152,788.4948778565799,0.13815789473684215
153,791.2923561859734,0.13815789473684215
154,794.0898345153664,0.13815789473684215
155,796.8873128447594,0.13157894736842102
156,796.8873128447594,0.13815789473684215
157,799.6847911741529,0.13815789473684215
158,799.6847911741529,0.13157894736842102
159,802.4822695035459,0.13157894736842102
160,802.4822695035459,0.13815789473684215
161,805.2797478329394,0.13157894736842102
162,808.0772261623324,0.13157894736842102
163,810.8747044917259,0.13157894736842102
164,813.6721828211189,0.13157894736842102
165,816.4696611505124,0.13157894736842102
166,819.2671394799054,0.13157894736842102
167,819.2671394799054,0.13815789473684215
168,822.0646178092989,0.13815789473684215
169,822.0646178092989,0.14473684210526316
170,824.8620961386919,0.14473684210526316
171,824.8620961386919,0.15131578947368418
172,824.8620961386919,0.1578947368421053
173,827.6595744680849,0.16447368421052633
174,827.6595744680849,0.1578947368421053
175,830.4570527974784,0.17105263157894735
176,830.4570527974784,0.16447368421052633
177,830.4570527974784,0.17763157894736847
178,833.2545311268714,0.17763157894736847
179,836.0520094562648,0.1907894736842105
180,836.0520094562648,0.17763157894736847
181,836.0520094562648,0.1842105263157895
182,838.8494877856579,0.19736842105263153
183,838.8494877856579,0.1907894736842105
184,841.6469661150513,0.19736842105263153
185,841.6469661150513,0.20394736842105265
186,841.6469661150513,0.2171052631578947
187,841.6469661150513,0.21052631578947367
188,844.4444444444443,0.2171052631578947
189,844.4444444444443,0.22368421052631582
190,847.2419227738378,0.22368421052631582
191,850.0394011032308,0.22368421052631582
192,850.0394011032308,0.2171052631578947
193,852.8368794326243,0.21052631578947367
194,852.8368794326243,0.2171052631578947
195,855.6343577620173,0.21052631578947367
196,855.6343577620173,0.19736842105263153
197,855.6343577620173,0.20394736842105265
198,855.6343577620173,0.1907894736842105
199,858.4318360914103,0.1842105263157895
200,858.4318360914103,0.1907894736842105
201,861.2293144208038,0.17105263157894735
202,861.2293144208038,0.17763157894736847
203,861.2293144208038,0.1842105263157895
204,864.0267927501968,0.17105263157894735
205,864.0267927501968,0.16447368421052633
206,866.8242710795903,0.16447368421052633
207,869.6217494089833,0.16447368421052633
208,872.4192277383768,0.16447368421052633
209,875.2167060677698,0.16447368421052633
210,878.0141843971633,0.16447368421052633
211,880.8116627265563,0.16447368421052633
212,883.6091410559497,0.1578947368421053
213,883.6091410559497,0.16447368421052633
214,886.4066193853428,0.1578947368421053
215,889.2040977147362,0.15131578947368418
216,889.2040977147362,0.1578947368421053
217,892.0015760441293,0.1578947368421053
218,892.0015760441293,0.15131578947368418
219,894.7990543735223,0.1578947368421053
220,897.5965327029157,0.16447368421052633
221,897.5965327029157,0.1578947368421053
222,900.3940110323088,0.16447368421052633
223,903.1914893617022,0.17105263157894735
224,903.1914893617022,0.16447368421052633
225,905.9889676910952,0.17763157894736847
226,905.9889676910952,0.17105263157894735
227,908.7864460204887,0.1842105263157895
228,908.7864460204887,0.17763157894736847
229,911.5839243498817,0.1842105263157895
230,911.5839243498817,0.1907894736842105
231,914.3814026792752,0.1907894736842105
232,914.3814026792752,0.19736842105263153
233,917.1788810086682,0.20394736842105265
234,917.1788810086682,0.19736842105263153
235,919.9763593380617,0.20394736842105265
236,922.7738376674547,0.21052631578947367
237,922.7738376674547,0.20394736842105265
238,925.5713159968477,0.21052631578947367
239,928.3687943262412,0.21052631578947367
240,931.1662726556342,0.21052631578947367
241,933.9637509850277,0.21052631578947367
242,936.7612293144207,0.21052631578947367
243,939.5587076438142,0.2171052631578947
244,939.5587076438142,0.21052631578947367
245,942.3561859732072,0.2171052631578947
246,945.1536643026006,0.2171052631578947
247,947.9511426319937,0.2171052631578947
248,950.7486209613871,0.2171052631578947
249,953.5460992907801,0.2171052631578947
250,953.5460992907801,0.21052631578947367
251,956.3435776201732,0.21052631578947367
252,956.3435776201732,0.20394736842105265
253,959.1410559495666,0.20394736842105265
254,961.9385342789597,0.19736842105263153
255,961.9385342789597,0.20394736842105265
256,964.7360126083531,0.1907894736842105
257,964.7360126083531,0.19736842105263153
258,967.5334909377461,0.1842105263157895
259,967.5334909377461,0.1907894736842105
260,970.3309692671396,0.1842105263157895
261,973.1284475965326,0.1842105263157895
262,973.1284475965326,0.17763157894736847
263,975.9259259259261,0.17763157894736847
264,978.7234042553191,0.17105263157894735
265,978.7234042553191,0.17763157894736847
266,981.5208825847126,0.17105263157894735
267,984.3183609141056,0.17105263157894735
268,987.1158392434986,0.17105263157894735
269,989.9133175728921,0.17105263157894735
270,992.7107959022851,0.17105263157894735
271,992.7107959022851,0.17763157894736847
272,995.5082742316786,0.1842105263157895
273,995.5082742316786,0.17763157894736847
274,998.3057525610716,0.19736842105263153
275,998.3057525610716,0.1907894736842105
276,998.3057525610716,0.20394736842105265
277,998.3057525610716,0.1842105263157895
278,1001.103230890465,0.20394736842105265
279,1001.103230890465,0.2171052631578947
280,1001.103230890465,0.21052631578947367
281,1003.9007092198581,0.24342105263157898
282,1003.9007092198581,0.22368421052631582
283,1003.9007092198581,0.2171052631578947
284,1003.9007092198581,0.23026315789473684
285,1003.9007092198581,0.23684210526315785
286,1006.6981875492515,0.256578947368421
287,1006.6981875492515,0.25
288,1006.6981875492515,0.26315789473684215
289,1009.4956658786446,0.2763157894736842
290,1009.4956658786446,0.2894736842105263
291,1009.4956658786446,0.26315789473684215
292,1009.4956658786446,0.26973684210526316
293,1009.4956658786446,0.2828947368421053
294,1012.293144208038,0.29605263157894735
295,1012.293144208038,0.2894736842105263
296,1012.293144208038,0.3026315789473685
297,1015.090622537431,0.3026315789473685
298,1015.090622537431,0.3092105263157895
299,1017.8881008668241,0.3223684210526315
300,1017.8881008668241,0.3157894736842105
301,1017.8881008668241,0.3092105263157895
302,1020.6855791962175,0.32894736842105265
303,1020.6855791962175,0.3223684210526315
304,1023.4830575256105,0.3355263157894737
305,1023.4830575256105,0.32894736842105265
306,1026.280535855004,0.3421052631578947
307,1026.280535855004,0.3355263157894737
308,1029.078014184397,0.3421052631578947
309,1031.8754925137905,0.3421052631578947
310,1034.6729708431835,0.3421052631578947
311,1034.6729708431835,0.3355263157894737
312,1037.470449172577,0.3223684210526315
313,1037.470449172577,0.3355263157894737
314,1037.470449172577,0.32894736842105265
315,1040.26792750197,0.3223684210526315
316,1040.26792750197,0.3157894736842105
317,1040.26792750197,0.3092105263157895
318,1043.0654058313635,0.3026315789473685
319,1043.0654058313635,0.3092105263157895
320,1045.8628841607565,0.3026315789473685
321,1045.8628841607565,0.29605263157894735
322,1048.6603624901495,0.2894736842105263
323,1048.6603624901495,0.29605263157894735
324,1051.457840819543,0.2894736842105263
325,1054.255319148936,0.2894736842105263
326,1057.0527974783295,0.2894736842105263
327,1059.8502758077225,0.2894736842105263
328,1062.647754137116,0.29605263157894735
329,1062.647754137116,0.2894736842105263
330,1065.445232466509,0.3026315789473685
331,1065.445232466509,0.29605263157894735
332,1068.2427107959024,0.3026315789473685
333,1071.0401891252955,0.3026315789473685
334,1073.837667454689,0.3092105263157895
335,1073.837667454689,0.3026315789473685
336,1076.635145784082,0.3157894736842105
337,1076.635145784082,0.3092105263157895
338,1079.432624113475,0.3223684210526315
339,1079.432624113475,0.3157894736842105
340,1079.432624113475,0.32894736842105265
341,1082.2301024428684,0.32894736842105265
342,1082.2301024428684,0.3355263157894737
343,1085.0275807722614,0.3486842105263158
344,1085.0275807722614,0.35526315789473684
345,1085.0275807722614,0.3421052631578947
346,1085.0275807722614,0.3355263157894737
347,1085.0275807722614,0.36184210526315785
348,1087.825059101655,0.368421052631579
349,1087.825059101655,0.381578947368421
350,1087.825059101655,0.375
351,1087.825059101655,0.36184210526315785
352,1090.622537431048,0.39473684210526316
353,1090.622537431048,0.38815789473684215
354,1090.622537431048,0.4013157894736842
355,1090.622537431048,0.381578947368421
356,1093.4200157604414,0.4013157894736842
357,1096.2174940898344,0.4013157894736842
358,1099.014972419228,0.4013157894736842
359,1101.812450748621,0.4013157894736842
360,1101.812450748621,0.4078947368421053
361,1104.6099290780144,0.42105263157894735
362,1104.6099290780144,0.4078947368421053
363,1104.6099290780144,0.4144736842105263
364,1107.4074074074074,0.42105263157894735
365,1107.4074074074074,0.4276315789473685
366,1107.4074074074074,0.4342105263157895
367,1110.2048857368004,0.4407894736842105
368,1110.2048857368004,0.4342105263157895
369,1110.2048857368004,0.4473684210526315
370,1113.0023640661939,0.4473684210526315
371,1115.799842395587,0.4407894736842105
372,1115.799842395587,0.4473684210526315
373,1118.5973207249804,0.4407894736842105
374,1121.3947990543734,0.4407894736842105
375,1124.1922773837669,0.4407894736842105
376,1126.9897557131599,0.4407894736842105
377,1126.9897557131599,0.4473684210526315
378,1129.7872340425533,0.4605263157894737
379,1129.7872340425533,0.45394736842105265
380,1129.7872340425533,0.4473684210526315
381,1132.5847123719464,0.4671052631578947
382,1132.5847123719464,0.4605263157894737
383,1135.3821907013398,0.48026315789473684
384,1135.3821907013398,0.4671052631578947
385,1135.3821907013398,0.4736842105263158
386,1135.3821907013398,0.48684210526315785
387,1138.1796690307328,0.48684210526315785
388,1138.1796690307328,0.5
389,1138.1796690307328,0.493421052631579
390,1140.9771473601263,0.5
391,1140.9771473601263,0.5263157894736843
392,1140.9771473601263,0.506578947368421
393,1140.9771473601263,0.5197368421052632
394,1140.9771473601263,0.513157894736842
395,1143.7746256895193,0.5263157894736843
396,1143.7746256895193,0.5328947368421053
397,1143.7746256895193,0.5394736842105263
398,1146.5721040189123,0.5921052631578947
399,1146.5721040189123,0.5789473684210527
400,1146.5721040189123,0.5723684210526316
401,1146.5721040189123,0.5657894736842105
402,1146.5721040189123,0.5592105263157895
403,1146.5721040189123,0.5855263157894737
404,1146.5721040189123,0.5526315789473684
405,1146.5721040189123,0.5460526315789473
406,1146.5721040189123,0.5394736842105263
407,1149.3695823483058,0.5986842105263157
408,1149.3695823483058,0.5921052631578947
409,1149.3695823483058,0.611842105263158
410,1149.3695823483058,0.6052631578947368
411,1152.1670606776988,0.6513157894736843
412,1152.1670606776988,0.618421052631579
413,1152.1670606776988,0.625
414,1152.1670606776988,0.611842105263158
415,1152.1670606776988,0.638157894736842
416,1152.1670606776988,0.631578947368421
417,1152.1670606776988,0.6447368421052632
418,1154.9645390070923,0.6513157894736843
419,1157.7620173364853,0.6513157894736843
420,1160.5594956658788,0.6447368421052632
421,1160.5594956658788,0.6513157894736843
422,1160.5594956658788,0.638157894736842
423,1163.3569739952718,0.631578947368421
424,1163.3569739952718,0.638157894736842
425,1166.1544523246653,0.6447368421052632
426,1166.1544523246653,0.631578947368421
427,1166.1544523246653,0.638157894736842
428,1168.9519306540583,0.6513157894736843
429,1168.9519306540583,0.6447368421052632
430,1171.7494089834518,0.6578947368421053
431,1171.7494089834518,0.6710526315789473
432,1171.7494089834518,0.6513157894736843
433,1171.7494089834518,0.6644736842105263
434,1174.5468873128448,0.6710526315789473
435,1174.5468873128448,0.6644736842105263
436,1177.3443656422378,0.6447368421052632
437,1177.3443656422378,0.6644736842105263
438,1177.3443656422378,0.6578947368421053
439,1177.3443656422378,0.638157894736842
440,1177.3443656422378,0.6513157894736843
441,1180.1418439716313,0.631578947368421
442,1180.1418439716313,0.638157894736842
443,1180.1418439716313,0.625
444,1180.1418439716313,0.618421052631579
445,1182.9393223010243,0.618421052631579
446,1182.9393223010243,0.611842105263158
447,1182.9393223010243,0.6052631578947368
448,1182.9393223010243,0.5986842105263157
449,1185.7368006304177,0.5855263157894737
450,1185.7368006304177,0.5460526315789473
451,1185.7368006304177,0.5723684210526316
452,1185.7368006304177,0.5789473684210527
453,1185.7368006304177,0.5986842105263157
454,1185.7368006304177,0.5657894736842105
455,1185.7368006304177,0.5592105263157895
456,1185.7368006304177,0.5526315789473684
457,1185.7368006304177,0.5921052631578947
458,1188.5342789598108,0.5328947368421053
459,1188.5342789598108,0.5394736842105263
460,1188.5342789598108,0.5460526315789473
461,1188.5342789598108,0.5263157894736843
462,1191.3317572892042,0.5197368421052632
463,1191.3317572892042,0.48026315789473684
464,1191.3317572892042,0.506578947368421
465,1191.3317572892042,0.493421052631579
466,1191.3317572892042,0.5
467,1191.3317572892042,0.5263157894736843
468,1191.3317572892042,0.48684210526315785
469,1191.3317572892042,0.513157894736842
470,1194.1292356185972,0.4605263157894737
471,1194.1292356185972,0.4736842105263158
472,1194.1292356185972,0.48026315789473684
