,wavenumbers,absorbance
0,452.797478329393,0.019736842105263164
1,455.5949566587865,0.019736842105263164
2,458.3924349881795,0.019736842105263164
3,461.189913317573,0.019736842105263164
4,463.987391646966,0.019736842105263164
5,466.78486997635946,0.019736842105263164
6,469.5823483057525,0.019736842105263164
7,472.37982663514595,0.019736842105263164
8,475.17730496453896,0.019736842105263164
9,477.97478329393243,0.02631578947368418
10,477.97478329393243,0.019736842105263164
11,480.77226162332545,0.02631578947368418
12,483.56973995271846,0.03289473684210531
13,483.56973995271846,0.02631578947368418
14,486.36721828211193,0.03289473684210531
15,486.36721828211193,0.03947368421052633
16,489.16469661150495,0.03947368421052633
17,491.9621749408984,0.03947368421052633
18,491.9621749408984,0.046052631578947345
19,494.75965327029144,0.046052631578947345
20,497.5571315996849,0.046052631578947345
21,500.3546099290779,0.046052631578947345
22,503.1520882584714,0.046052631578947345
23,505.9495665878644,0.046052631578947345
24,508.7470449172579,0.046052631578947345
25,508.7470449172579,0.03947368421052633
26,511.5445232466509,0.03947368421052633
27,514.3420015760439,0.03947368421052633
28,517.1394799054374,0.03289473684210531
29,517.1394799054374,0.03947368421052633
30,519.9369582348304,0.03289473684210531
31,522.7344365642239,0.03289473684210531
32,525.5319148936169,0.02631578947368418
33,525.5319148936169,0.03289473684210531
34,528.3293932230104,0.02631578947368418
35,531.1268715524034,0.02631578947368418
36,533.9243498817968,0.02631578947368418
37,536.7218282111899,0.02631578947368418
38,539.5193065405833,0.02631578947368418
39,539.5193065405833,0.019736842105263164
40,542.3167848699763,0.019736842105263164
41,545.1142631993694,0.019736842105263164
42,547.9117415287628,0.019736842105263164
43,550.7092198581558,0.019736842105263164
44,553.5066981875493,0.019736842105263164
45,556.3041765169423,0.019736842105263164
46,559.1016548463358,0.019736842105263164
47,561.8991331757288,0.019736842105263164
48,564.6966115051223,0.019736842105263164
49,567.4940898345153,0.019736842105263164
50,570.2915681639088,0.019736842105263164
51,573.0890464933018,0.019736842105263164
52,575.8865248226948,0.019736842105263164
53,578.6840031520883,0.019736842105263164
54,581.4814814814813,0.019736842105263164
55,584.2789598108748,0.019736842105263164
56,587.0764381402678,0.019736842105263164
57,589.8739164696613,0.019736842105263164
58,592.6713947990543,0.019736842105263164
59,595.4688731284477,0.019736842105263164
60,598.2663514578408,0.019736842105263164
61,601.0638297872342,0.019736842105263164
62,603.8613081166272,0.019736842105263164
63,606.6587864460207,0.019736842105263164
64,609.4562647754137,0.019736842105263164
65,612.2537431048067,0.02631578947368418
66,612.2537431048067,0.019736842105263164
67,615.0512214342002,0.02631578947368418
68,617.8486997635932,0.02631578947368418
69,620.6461780929867,0.02631578947368418
70,623.4436564223797,0.02631578947368418
71,626.2411347517732,0.02631578947368418
72,626.2411347517732,0.019736842105263164
73,629.0386130811662,0.019736842105263164
74,631.8360914105597,0.019736842105263164
75,634.6335697399527,0.019736842105263164
76,637.4310480693462,0.019736842105263164
77,640.2285263987392,0.019736842105263164
78,643.0260047281322,0.019736842105263164
79,643.0260047281322,0.02631578947368418
80,645.8234830575257,0.03289473684210531
81,645.8234830575257,0.02631578947368418
82,648.6209613869187,0.03289473684210531
83,648.6209613869187,0.03947368421052633
84,648.6209613869187,0.046052631578947345
85,651.4184397163122,0.08552631578947367
86,651.4184397163122,0.10526315789473684
87,651.4184397163122,0.09868421052631582
88,651.4184397163122,0.046052631578947345
89,651.4184397163122,0.11184210526315785
90,651.4184397163122,0.07894736842105265
91,651.4184397163122,0.09210526315789469
92,651.4184397163122,0.11842105263157898
93,651.4184397163122,0.052631578947368474
94,651.4184397163122,0.05921052631578949
95,651.4184397163122,0.07236842105263153
96,651.4184397163122,0.06578947368421051
97,654.2159180457052,0.125
98,654.2159180457052,0.14473684210526316
99,654.2159180457052,0.15131578947368418
100,654.2159180457052,0.13815789473684215
101,654.2159180457052,0.11842105263157898
102,654.2159180457052,0.1578947368421053
103,654.2159180457052,0.16447368421052633
104,654.2159180457052,0.13157894736842102
105,657.0133963750986,0.16447368421052633
106,657.0133963750986,0.17105263157894735
107,657.0133963750986,0.17763157894736847
108,657.0133963750986,0.1842105263157895
109,659.8108747044917,0.17763157894736847
110,659.8108747044917,0.16447368421052633
111,659.8108747044917,0.17105263157894735
112,662.6083530338851,0.16447368421052633
113,662.6083530338851,0.1578947368421053
114,665.4058313632781,0.1578947368421053
115,668.2033096926716,0.1578947368421053
116,668.2033096926716,0.16447368421052633
117,671.0007880220646,0.16447368421052633
118,671.0007880220646,0.17105263157894735
119,673.7982663514576,0.17763157894736847
120,673.7982663514576,0.17105263157894735
121,676.5957446808511,0.19736842105263153
122,676.5957446808511,0.1842105263157895
123,676.5957446808511,0.1907894736842105
124,676.5957446808511,0.17763157894736847
125,679.3932230102441,0.19736842105263153
126,679.3932230102441,0.20394736842105265
127,682.1907013396376,0.20394736842105265
128,682.1907013396376,0.21052631578947367
129,682.1907013396376,0.2171052631578947
130,684.9881796690306,0.2171052631578947
131,687.7856579984241,0.2171052631578947
132,687.7856579984241,0.21052631578947367
133,690.5831363278171,0.2171052631578947
134,693.3806146572106,0.22368421052631582
135,693.3806146572106,0.23026315789473684
136,693.3806146572106,0.2171052631578947
137,696.1780929866036,0.23026315789473684
138,696.1780929866036,0.23684210526315785
139,698.9755713159971,0.24342105263157898
140,698.9755713159971,0.23684210526315785
141,701.7730496453901,0.24342105263157898
142,701.7730496453901,0.23684210526315785
143,701.7730496453901,0.23026315789473684
144,704.5705279747831,0.23026315789473684
145,704.5705279747831,0.2171052631578947
146,704.5705279747831,0.21052631578947367
147,704.5705279747831,0.22368421052631582
148,707.3680063041766,0.1578947368421053
149,707.3680063041766,0.15131578947368418
150,707.3680063041766,0.20394736842105265
151,707.3680063041766,0.14473684210526316
152,707.3680063041766,0.17105263157894735
153,707.3680063041766,0.17763157894736847
154,707.3680063041766,0.16447368421052633
155,707.3680063041766,0.19736842105263153
156,707.3680063041766,0.1842105263157895
157,707.3680063041766,0.21052631578947367
158,707.3680063041766,0.1907894736842105
159,710.1654846335696,0.125
160,710.1654846335696,0.13157894736842102
161,710.1654846335696,0.11842105263157898
162,710.1654846335696,0.14473684210526316
163,710.1654846335696,0.13815789473684215
164,712.962962962963,0.09868421052631582
165,712.962962962963,0.11842105263157898
166,712.962962962963,0.09210526315789469
167,712.962962962963,0.10526315789473684
168,712.962962962963,0.11184210526315785
169,715.7604412923561,0.09210526315789469
170,715.7604412923561,0.08552631578947367
171,718.5579196217495,0.08552631578947367
172,718.5579196217495,0.07894736842105265
173,721.3553979511425,0.07894736842105265
174,724.152876280536,0.07894736842105265
175,726.950354609929,0.07894736842105265
176,729.7478329393225,0.08552631578947367
177,729.7478329393225,0.07894736842105265
178,732.5453112687155,0.09210526315789469
179,732.5453112687155,0.08552631578947367
180,735.3427895981085,0.09868421052631582
181,735.3427895981085,0.09210526315789469
182,738.140267927502,0.10526315789473684
183,738.140267927502,0.09868421052631582
184,740.937746256895,0.10526315789473684
185,743.7352245862885,0.11184210526315785
186,743.7352245862885,0.10526315789473684
187,746.5327029156815,0.11184210526315785
188,746.5327029156815,0.11842105263157898
189,749.330181245075,0.11842105263157898
190,749.330181245075,0.13157894736842102
191,749.330181245075,0.125
192,752.127659574468,0.13815789473684215
193,752.127659574468,0.13157894736842102
194,754.9251379038615,0.14473684210526316
195,754.9251379038615,0.13815789473684215
196,754.9251379038615,0.1578947368421053
197,754.9251379038615,0.16447368421052633
198,754.9251379038615,0.15131578947368418
199,757.7226162332545,0.16447368421052633
200,757.7226162332545,0.17105263157894735
201,757.7226162332545,0.17763157894736847
202,760.520094562648,0.1907894736842105
203,760.520094562648,0.17763157894736847
204,760.520094562648,0.1842105263157895
205,763.317572892041,0.20394736842105265
206,763.317572892041,0.22368421052631582
207,763.317572892041,0.23026315789473684
208,763.317572892041,0.2171052631578947
209,763.317572892041,0.21052631578947367
210,763.317572892041,0.23684210526315785
211,763.317572892041,0.1907894736842105
212,763.317572892041,0.19736842105263153
213,766.115051221434,0.24342105263157898
214,766.115051221434,0.25
215,766.115051221434,0.23684210526315785
216,766.115051221434,0.256578947368421
217,766.115051221434,0.26973684210526316
218,766.115051221434,0.26315789473684215
219,768.9125295508275,0.3157894736842105
220,768.9125295508275,0.3092105263157895
221,768.9125295508275,0.3223684210526315
222,768.9125295508275,0.3421052631578947
223,768.9125295508275,0.2763157894736842
224,768.9125295508275,0.32894736842105265
225,768.9125295508275,0.2828947368421053
226,768.9125295508275,0.2894736842105263
227,768.9125295508275,0.26973684210526316
228,768.9125295508275,0.3026315789473685
229,768.9125295508275,0.29605263157894735
230,768.9125295508275,0.3355263157894737
231,771.7100078802205,0.3486842105263158
232,771.7100078802205,0.381578947368421
233,771.7100078802205,0.368421052631579
234,771.7100078802205,0.375
235,771.7100078802205,0.3421052631578947
236,771.7100078802205,0.39473684210526316
237,771.7100078802205,0.35526315789473684
238,771.7100078802205,0.36184210526315785
239,771.7100078802205,0.38815789473684215
240,774.507486209614,0.4342105263157895
241,774.507486209614,0.506578947368421
242,774.507486209614,0.513157894736842
243,774.507486209614,0.45394736842105265
244,774.507486209614,0.4407894736842105
245,774.507486209614,0.39473684210526316
246,774.507486209614,0.4276315789473685
247,774.507486209614,0.4671052631578947
248,774.507486209614,0.42105263157894735
249,774.507486209614,0.493421052631579
250,774.507486209614,0.4736842105263158
251,774.507486209614,0.5
252,774.507486209614,0.4144736842105263
253,774.507486209614,0.4078947368421053
254,774.507486209614,0.4013157894736842
255,774.507486209614,0.48026315789473684
256,774.507486209614,0.48684210526315785
257,774.507486209614,0.4605263157894737
258,774.507486209614,0.4473684210526315
259,777.304964539007,0.5526315789473684
260,777.304964539007,0.5723684210526316
261,777.304964539007,0.5197368421052632
262,777.304964539007,0.5657894736842105
263,777.304964539007,0.5789473684210527
264,777.304964539007,0.5263157894736843
265,777.304964539007,0.5328947368421053
266,777.304964539007,0.5460526315789473
267,777.304964539007,0.5394736842105263
268,777.304964539007,0.513157894736842
269,777.304964539007,0.5592105263157895
270,780.1024428684004,0.7039473684210527
271,780.1024428684004,0.6578947368421053
272,780.1024428684004,0.6842105263157895
273,780.1024428684004,0.6907894736842105
274,780.1024428684004,0.6973684210526316
275,780.1024428684004,0.6447368421052632
276,780.1024428684004,0.6513157894736843
277,780.1024428684004,0.6776315789473684
278,780.1024428684004,0.6644736842105263
279,780.1024428684004,0.6710526315789473
280,780.1024428684004,0.5789473684210527
281,780.1024428684004,0.638157894736842
282,780.1024428684004,0.631578947368421
283,780.1024428684004,0.5855263157894737
284,780.1024428684004,0.5921052631578947
285,780.1024428684004,0.5986842105263157
286,780.1024428684004,0.625
287,780.1024428684004,0.6052631578947368
288,780.1024428684004,0.611842105263158
289,780.1024428684004,0.618421052631579
290,782.8999211977934,0.736842105263158
291,782.8999211977934,0.7039473684210527
292,782.8999211977934,0.7105263157894737
293,782.8999211977934,0.743421052631579
294,782.8999211977934,0.7302631578947368
295,782.8999211977934,0.7171052631578947
296,782.8999211977934,0.75
297,782.8999211977934,0.756578947368421
298,782.8999211977934,0.7631578947368421
299,782.8999211977934,0.7236842105263157
300,785.6973995271869,0.8289473684210527
301,785.6973995271869,0.8223684210526316
302,785.6973995271869,0.7631578947368421
303,785.6973995271869,0.7894736842105263
304,785.6973995271869,0.8092105263157895
305,785.6973995271869,0.7697368421052632
306,785.6973995271869,0.8026315789473684
307,785.6973995271869,0.7763157894736842
308,785.6973995271869,0.7960526315789473
309,785.6973995271869,0.8157894736842105
310,785.6973995271869,0.7828947368421053
311,788.4948778565799,0.9342105263157895
312,788.4948778565799,0.9276315789473684
313,788.4948778565799,0.9210526315789473
314,788.4948778565799,0.9144736842105263
315,788.4948778565799,0.9013157894736842
316,788.4948778565799,0.8947368421052632
317,788.4948778565799,0.8881578947368421
318,788.4948778565799,0.9078947368421053
319,788.4948778565799,0.868421052631579
320,788.4948778565799,0.881578947368421
321,788.4948778565799,0.8289473684210527
322,788.4948778565799,0.8355263157894737
323,788.4948778565799,0.875
324,788.4948778565799,0.8486842105263158
325,788.4948778565799,0.8552631578947368
326,788.4948778565799,0.8618421052631579
327,788.4948778565799,0.8421052631578947
328,791.2923561859734,0.9342105263157895
329,791.2923561859734,0.9407894736842105
330,791.2923561859734,0.9473684210526316
331,791.2923561859734,0.9605263157894737
332,791.2923561859734,0.9671052631578947
333,791.2923561859734,0.9736842105263158
334,791.2923561859734,0.9539473684210527
335,794.0898345153664,0.9736842105263158
336,794.0898345153664,0.9802631578947368
337,794.0898345153664,0.9868421052631579
338,794.0898345153664,0.993421052631579
339,794.0898345153664,1.0
340,799.6847911741529,1.0
341,799.6847911741529,0.9868421052631579
342,799.6847911741529,0.9736842105263158
343,799.6847911741529,0.993421052631579
344,799.6847911741529,0.9671052631578947
345,799.6847911741529,0.9802631578947368
346,802.4822695035459,0.9671052631578947
347,802.4822695035459,0.9473684210526316
348,802.4822695035459,0.9539473684210527
349,802.4822695035459,0.9605263157894737
350,802.4822695035459,0.9342105263157895
351,802.4822695035459,0.9407894736842105
352,805.2797478329394,0.9276315789473684
353,805.2797478329394,0.9144736842105263
354,805.2797478329394,0.9078947368421053
355,805.2797478329394,0.9013157894736842
356,805.2797478329394,0.9342105263157895
357,805.2797478329394,0.9210526315789473
358,805.2797478329394,0.8947368421052632
359,805.2797478329394,0.875
360,805.2797478329394,0.881578947368421
361,805.2797478329394,0.868421052631579
362,805.2797478329394,0.8881578947368421
363,808.0772261623324,0.868421052631579
364,808.0772261623324,0.8618421052631579
365,808.0772261623324,0.8552631578947368
366,808.0772261623324,0.8486842105263158
367,808.0772261623324,0.8421052631578947
368,810.8747044917259,0.8421052631578947
369,810.8747044917259,0.8026315789473684
370,810.8747044917259,0.8092105263157895
371,810.8747044917259,0.8355263157894737
372,810.8747044917259,0.8223684210526316
373,810.8747044917259,0.8289473684210527
374,810.8747044917259,0.8157894736842105
375,813.6721828211189,0.7960526315789473
376,813.6721828211189,0.7894736842105263
377,813.6721828211189,0.8026315789473684
378,813.6721828211189,0.7828947368421053
379,816.4696611505124,0.756578947368421
380,816.4696611505124,0.7631578947368421
381,816.4696611505124,0.7697368421052632
382,816.4696611505124,0.7828947368421053
383,816.4696611505124,0.7763157894736842
384,819.2671394799054,0.7171052631578947
385,819.2671394799054,0.6842105263157895
386,819.2671394799054,0.6973684210526316
387,819.2671394799054,0.743421052631579
388,819.2671394799054,0.7039473684210527
389,819.2671394799054,0.7105263157894737
390,819.2671394799054,0.7236842105263157
391,819.2671394799054,0.6907894736842105
392,819.2671394799054,0.736842105263158
393,819.2671394799054,0.7302631578947368
394,819.2671394799054,0.75
395,819.2671394799054,0.756578947368421
396,822.0646178092989,0.6578947368421053
397,822.0646178092989,0.6842105263157895
398,822.0646178092989,0.6513157894736843
399,822.0646178092989,0.6710526315789473
400,822.0646178092989,0.638157894736842
401,822.0646178092989,0.6644736842105263
402,822.0646178092989,0.6447368421052632
403,822.0646178092989,0.6776315789473684
404,824.8620961386919,0.5526315789473684
405,824.8620961386919,0.5592105263157895
406,824.8620961386919,0.6052631578947368
407,824.8620961386919,0.5855263157894737
408,824.8620961386919,0.5921052631578947
409,824.8620961386919,0.638157894736842
410,824.8620961386919,0.5986842105263157
411,824.8620961386919,0.611842105263158
412,824.8620961386919,0.5789473684210527
413,824.8620961386919,0.5723684210526316
414,824.8620961386919,0.631578947368421
415,824.8620961386919,0.618421052631579
416,824.8620961386919,0.5657894736842105
417,824.8620961386919,0.625
418,827.6595744680849,0.5394736842105263
419,827.6595744680849,0.5460526315789473
420,827.6595744680849,0.5328947368421053
421,827.6595744680849,0.5263157894736843
422,827.6595744680849,0.5197368421052632
423,827.6595744680849,0.513157894736842
424,827.6595744680849,0.5526315789473684
425,830.4570527974784,0.5
426,830.4570527974784,0.4736842105263158
427,830.4570527974784,0.48026315789473684
428,830.4570527974784,0.4671052631578947
429,830.4570527974784,0.4605263157894737
430,830.4570527974784,0.506578947368421
431,830.4570527974784,0.45394736842105265
432,830.4570527974784,0.4473684210526315
433,830.4570527974784,0.48684210526315785
434,830.4570527974784,0.513157894736842
435,830.4570527974784,0.493421052631579
436,833.2545311268714,0.4342105263157895
437,833.2545311268714,0.4276315789473685
438,833.2545311268714,0.4473684210526315
439,833.2545311268714,0.42105263157894735
440,833.2545311268714,0.4407894736842105
441,836.0520094562648,0.39473684210526316
442,836.0520094562648,0.38815789473684215
443,836.0520094562648,0.4078947368421053
444,836.0520094562648,0.42105263157894735
445,836.0520094562648,0.4144736842105263
446,836.0520094562648,0.4013157894736842
447,838.8494877856579,0.38815789473684215
448,838.8494877856579,0.381578947368421
449,838.8494877856579,0.375
450,841.6469661150513,0.368421052631579
451,841.6469661150513,0.36184210526315785
452,841.6469661150513,0.375
453,844.4444444444443,0.36184210526315785
454,847.2419227738378,0.36184210526315785
455,847.2419227738378,0.368421052631579
456,850.0394011032308,0.368421052631579
457,850.0394011032308,0.39473684210526316
458,850.0394011032308,0.381578947368421
459,850.0394011032308,0.375
460,850.0394011032308,0.38815789473684215
461,852.8368794326243,0.4144736842105263
462,852.8368794326243,0.39473684210526316
463,852.8368794326243,0.4013157894736842
464,852.8368794326243,0.4078947368421053
465,855.6343577620173,0.4342105263157895
466,855.6343577620173,0.4407894736842105
467,855.6343577620173,0.42105263157894735
468,855.6343577620173,0.4144736842105263
469,855.6343577620173,0.4276315789473685
470,858.4318360914103,0.4407894736842105
471,858.4318360914103,0.4473684210526315
472,861.2293144208038,0.4407894736842105
473,861.2293144208038,0.4473684210526315
474,864.0267927501968,0.4407894736842105
475,864.0267927501968,0.4342105263157895
476,866.8242710795903,0.42105263157894735
477,866.8242710795903,0.4144736842105263
478,866.8242710795903,0.4342105263157895
