,wavenumbers,absorbance
0,452.797478329393,0.07236842105263153
1,455.5949566587865,0.07236842105263153
2,458.3924349881795,0.07236842105263153
3,461.189913317573,0.07236842105263153
4,463.987391646966,0.07236842105263153
5,466.78486997635946,0.07236842105263153
6,469.5823483057525,0.07236842105263153
7,472.37982663514595,0.07236842105263153
8,475.17730496453896,0.07236842105263153
9,477.97478329393243,0.07236842105263153
10,480.77226162332545,0.07236842105263153
11,483.56973995271846,0.07236842105263153
12,486.36721828211193,0.07236842105263153
13,489.16469661150495,0.07236842105263153
14,491.9621749408984,0.07236842105263153
15,494.75965327029144,0.07236842105263153
16,497.5571315996849,0.07236842105263153
17,500.3546099290779,0.07236842105263153
18,503.1520882584714,0.06578947368421051
19,503.1520882584714,0.07236842105263153
20,505.9495665878644,0.06578947368421051
21,508.7470449172579,0.06578947368421051
22,511.5445232466509,0.06578947368421051
23,511.5445232466509,0.05921052631578949
24,514.3420015760439,0.05921052631578949
25,517.1394799054374,0.05921052631578949
26,517.1394799054374,0.052631578947368474
27,519.9369582348304,0.052631578947368474
28,519.9369582348304,0.046052631578947345
29,522.7344365642239,0.046052631578947345
30,522.7344365642239,0.03947368421052633
31,525.5319148936169,0.03289473684210531
32,525.5319148936169,0.03947368421052633
33,528.3293932230104,0.02631578947368418
34,528.3293932230104,0.03289473684210531
35,531.1268715524034,0.02631578947368418
36,533.9243498817968,0.02631578947368418
37,533.9243498817968,0.019736842105263164
38,536.7218282111899,0.019736842105263164
39,539.5193065405833,0.019736842105263164
40,539.5193065405833,0.013157894736842146
41,542.3167848699763,0.019736842105263164
42,545.1142631993694,0.019736842105263164
43,547.9117415287628,0.019736842105263164
44,550.7092198581558,0.019736842105263164
45,553.5066981875493,0.019736842105263164
46,556.3041765169423,0.019736842105263164
47,559.1016548463358,0.019736842105263164
48,561.8991331757288,0.019736842105263164
49,561.8991331757288,0.02631578947368418
50,564.6966115051223,0.02631578947368418
51,567.4940898345153,0.02631578947368418
52,570.2915681639088,0.02631578947368418
53,573.0890464933018,0.02631578947368418
54,575.8865248226948,0.02631578947368418
55,575.8865248226948,0.03289473684210531
56,578.6840031520883,0.03289473684210531
57,581.4814814814813,0.03289473684210531
58,581.4814814814813,0.03947368421052633
59,584.2789598108748,0.046052631578947345
60,584.2789598108748,0.03947368421052633
61,587.0764381402678,0.052631578947368474
62,587.0764381402678,0.046052631578947345
63,589.8739164696613,0.06578947368421051
64,589.8739164696613,0.07236842105263153
65,589.8739164696613,0.052631578947368474
66,589.8739164696613,0.09210526315789469
67,589.8739164696613,0.08552631578947367
68,589.8739164696613,0.07894736842105265
69,589.8739164696613,0.05921052631578949
70,592.6713947990543,0.09868421052631582
71,592.6713947990543,0.09210526315789469
72,592.6713947990543,0.10526315789473684
73,592.6713947990543,0.11842105263157898
74,592.6713947990543,0.11184210526315785
75,595.4688731284477,0.14473684210526316
76,595.4688731284477,0.11842105263157898
77,595.4688731284477,0.125
78,595.4688731284477,0.13815789473684215
79,595.4688731284477,0.15131578947368418
80,595.4688731284477,0.19736842105263153
81,595.4688731284477,0.17105263157894735
82,595.4688731284477,0.1907894736842105
83,595.4688731284477,0.13157894736842102
84,595.4688731284477,0.17763157894736847
85,595.4688731284477,0.1842105263157895
86,595.4688731284477,0.1578947368421053
87,595.4688731284477,0.16447368421052633
88,598.2663514578408,0.20394736842105265
89,598.2663514578408,0.23026315789473684
90,598.2663514578408,0.19736842105263153
91,598.2663514578408,0.23684210526315785
92,598.2663514578408,0.22368421052631582
93,598.2663514578408,0.21052631578947367
94,598.2663514578408,0.2171052631578947
95,598.2663514578408,0.24342105263157898
96,601.0638297872342,0.256578947368421
97,601.0638297872342,0.26315789473684215
98,601.0638297872342,0.25
99,601.0638297872342,0.24342105263157898
100,603.8613081166272,0.256578947368421
101,603.8613081166272,0.23684210526315785
102,603.8613081166272,0.23026315789473684
103,603.8613081166272,0.25
104,603.8613081166272,0.24342105263157898
105,606.6587864460207,0.1578947368421053
106,606.6587864460207,0.17105263157894735
107,606.6587864460207,0.23026315789473684
108,606.6587864460207,0.20394736842105265
109,606.6587864460207,0.19736842105263153
110,606.6587864460207,0.21052631578947367
111,606.6587864460207,0.16447368421052633
112,606.6587864460207,0.17763157894736847
113,606.6587864460207,0.2171052631578947
114,606.6587864460207,0.22368421052631582
115,606.6587864460207,0.1907894736842105
116,606.6587864460207,0.1842105263157895
117,609.4562647754137,0.15131578947368418
118,609.4562647754137,0.14473684210526316
119,609.4562647754137,0.13815789473684215
120,609.4562647754137,0.13157894736842102
121,609.4562647754137,0.1578947368421053
122,612.2537431048067,0.11842105263157898
123,612.2537431048067,0.09868421052631582
124,612.2537431048067,0.11184210526315785
125,612.2537431048067,0.10526315789473684
126,612.2537431048067,0.125
127,612.2537431048067,0.13157894736842102
128,615.0512214342002,0.09868421052631582
129,617.8486997635932,0.09868421052631582
130,620.6461780929867,0.09868421052631582
131,620.6461780929867,0.10526315789473684
132,623.4436564223797,0.11184210526315785
133,623.4436564223797,0.10526315789473684
134,626.2411347517732,0.11184210526315785
135,626.2411347517732,0.11842105263157898
136,629.0386130811662,0.11842105263157898
137,631.8360914105597,0.11184210526315785
138,631.8360914105597,0.11842105263157898
139,634.6335697399527,0.10526315789473684
140,634.6335697399527,0.11184210526315785
141,637.4310480693462,0.09868421052631582
142,637.4310480693462,0.09210526315789469
143,637.4310480693462,0.10526315789473684
144,640.2285263987392,0.08552631578947367
145,640.2285263987392,0.09210526315789469
146,643.0260047281322,0.08552631578947367
147,645.8234830575257,0.08552631578947367
148,648.6209613869187,0.08552631578947367
149,651.4184397163122,0.08552631578947367
150,651.4184397163122,0.07894736842105265
151,654.2159180457052,0.07236842105263153
152,654.2159180457052,0.07894736842105265
153,657.0133963750986,0.07236842105263153
154,657.0133963750986,0.06578947368421051
155,659.8108747044917,0.06578947368421051
156,659.8108747044917,0.05921052631578949
157,662.6083530338851,0.052631578947368474
158,662.6083530338851,0.05921052631578949
159,665.4058313632781,0.052631578947368474
160,665.4058313632781,0.046052631578947345
161,665.4058313632781,0.05921052631578949
162,668.2033096926716,0.046052631578947345
163,668.2033096926716,0.03947368421052633
164,671.0007880220646,0.03947368421052633
165,673.7982663514576,0.03947368421052633
166,676.5957446808511,0.03289473684210531
167,676.5957446808511,0.03947368421052633
168,679.3932230102441,0.03289473684210531
169,682.1907013396376,0.03289473684210531
170,684.9881796690306,0.03289473684210531
171,684.9881796690306,0.03947368421052633
172,687.7856579984241,0.05921052631578949
173,687.7856579984241,0.08552631578947367
174,687.7856579984241,0.03947368421052633
175,687.7856579984241,0.052631578947368474
176,687.7856579984241,0.06578947368421051
177,687.7856579984241,0.046052631578947345
178,687.7856579984241,0.07894736842105265
179,687.7856579984241,0.07236842105263153
180,690.5831363278171,0.125
181,690.5831363278171,0.10526315789473684
182,690.5831363278171,0.09210526315789469
183,690.5831363278171,0.11842105263157898
184,690.5831363278171,0.14473684210526316
185,690.5831363278171,0.08552631578947367
186,690.5831363278171,0.09868421052631582
187,690.5831363278171,0.13157894736842102
188,690.5831363278171,0.13815789473684215
189,690.5831363278171,0.11184210526315785
190,693.3806146572106,0.125
191,693.3806146572106,0.14473684210526316
192,693.3806146572106,0.15131578947368418
193,693.3806146572106,0.13157894736842102
194,693.3806146572106,0.16447368421052633
195,693.3806146572106,0.13815789473684215
196,693.3806146572106,0.1578947368421053
197,696.1780929866036,0.08552631578947367
198,696.1780929866036,0.11184210526315785
199,696.1780929866036,0.11842105263157898
200,696.1780929866036,0.09210526315789469
201,696.1780929866036,0.125
202,696.1780929866036,0.10526315789473684
203,696.1780929866036,0.09868421052631582
204,696.1780929866036,0.07894736842105265
205,698.9755713159971,0.07894736842105265
206,698.9755713159971,0.03947368421052633
207,698.9755713159971,0.07236842105263153
208,698.9755713159971,0.052631578947368474
209,698.9755713159971,0.046052631578947345
210,698.9755713159971,0.03289473684210531
211,698.9755713159971,0.06578947368421051
212,698.9755713159971,0.05921052631578949
213,701.7730496453901,0.03289473684210531
214,701.7730496453901,0.02631578947368418
215,704.5705279747831,0.019736842105263164
216,704.5705279747831,0.02631578947368418
217,707.3680063041766,0.019736842105263164
218,710.1654846335696,0.019736842105263164
219,712.962962962963,0.02631578947368418
220,712.962962962963,0.019736842105263164
221,715.7604412923561,0.02631578947368418
222,718.5579196217495,0.046052631578947345
223,718.5579196217495,0.03289473684210531
224,718.5579196217495,0.03947368421052633
225,718.5579196217495,0.052631578947368474
226,718.5579196217495,0.02631578947368418
227,721.3553979511425,0.052631578947368474
228,721.3553979511425,0.07236842105263153
229,721.3553979511425,0.05921052631578949
230,721.3553979511425,0.07894736842105265
231,721.3553979511425,0.06578947368421051
232,724.152876280536,0.17763157894736847
233,724.152876280536,0.125
234,724.152876280536,0.09868421052631582
235,724.152876280536,0.1907894736842105
236,724.152876280536,0.13157894736842102
237,724.152876280536,0.19736842105263153
238,724.152876280536,0.16447368421052633
239,724.152876280536,0.1842105263157895
240,724.152876280536,0.15131578947368418
241,724.152876280536,0.17105263157894735
242,724.152876280536,0.11184210526315785
243,724.152876280536,0.13815789473684215
244,724.152876280536,0.07894736842105265
245,724.152876280536,0.09210526315789469
246,724.152876280536,0.1578947368421053
247,724.152876280536,0.11842105263157898
248,724.152876280536,0.14473684210526316
249,724.152876280536,0.08552631578947367
250,724.152876280536,0.10526315789473684
251,726.950354609929,0.19736842105263153
252,726.950354609929,0.23026315789473684
253,726.950354609929,0.24342105263157898
254,726.950354609929,0.20394736842105265
255,726.950354609929,0.23684210526315785
256,726.950354609929,0.21052631578947367
257,726.950354609929,0.25
258,726.950354609929,0.2171052631578947
259,726.950354609929,0.256578947368421
260,726.950354609929,0.22368421052631582
261,729.7478329393225,0.26973684210526316
262,729.7478329393225,0.2828947368421053
263,729.7478329393225,0.2763157894736842
264,729.7478329393225,0.256578947368421
265,729.7478329393225,0.26315789473684215
266,732.5453112687155,0.2763157894736842
267,732.5453112687155,0.256578947368421
268,732.5453112687155,0.26973684210526316
269,732.5453112687155,0.25
270,732.5453112687155,0.26315789473684215
271,732.5453112687155,0.2828947368421053
272,735.3427895981085,0.22368421052631582
273,735.3427895981085,0.23026315789473684
274,735.3427895981085,0.23684210526315785
275,735.3427895981085,0.2171052631578947
276,735.3427895981085,0.21052631578947367
277,735.3427895981085,0.20394736842105265
278,735.3427895981085,0.24342105263157898
279,735.3427895981085,0.25
280,738.140267927502,0.14473684210526316
281,738.140267927502,0.13815789473684215
282,738.140267927502,0.1907894736842105
283,738.140267927502,0.17763157894736847
284,738.140267927502,0.125
285,738.140267927502,0.17105263157894735
286,738.140267927502,0.16447368421052633
287,738.140267927502,0.13157894736842102
288,738.140267927502,0.20394736842105265
289,738.140267927502,0.1842105263157895
290,738.140267927502,0.1578947368421053
291,738.140267927502,0.15131578947368418
292,738.140267927502,0.19736842105263153
293,740.937746256895,0.09868421052631582
294,740.937746256895,0.125
295,740.937746256895,0.11184210526315785
296,740.937746256895,0.11842105263157898
297,740.937746256895,0.10526315789473684
298,740.937746256895,0.09210526315789469
299,743.7352245862885,0.07894736842105265
300,743.7352245862885,0.06578947368421051
301,743.7352245862885,0.08552631578947367
302,743.7352245862885,0.05921052631578949
303,743.7352245862885,0.052631578947368474
304,743.7352245862885,0.07236842105263153
305,743.7352245862885,0.09210526315789469
306,746.5327029156815,0.052631578947368474
307,746.5327029156815,0.03947368421052633
308,746.5327029156815,0.046052631578947345
309,749.330181245075,0.03947368421052633
310,749.330181245075,0.03289473684210531
311,752.127659574468,0.03289473684210531
312,752.127659574468,0.02631578947368418
313,754.9251379038615,0.02631578947368418
314,757.7226162332545,0.02631578947368418
315,757.7226162332545,0.019736842105263164
316,760.520094562648,0.019736842105263164
317,763.317572892041,0.019736842105263164
318,766.115051221434,0.019736842105263164
319,768.9125295508275,0.019736842105263164
320,771.7100078802205,0.019736842105263164
321,774.507486209614,0.019736842105263164
322,777.304964539007,0.019736842105263164
323,780.1024428684004,0.02631578947368418
324,780.1024428684004,0.019736842105263164
325,780.1024428684004,0.03289473684210531
326,780.1024428684004,0.03947368421052633
327,782.8999211977934,0.046052631578947345
328,782.8999211977934,0.03947368421052633
329,785.6973995271869,0.05921052631578949
330,785.6973995271869,0.046052631578947345
331,785.6973995271869,0.052631578947368474
332,788.4948778565799,0.07894736842105265
333,788.4948778565799,0.07236842105263153
334,788.4948778565799,0.06578947368421051
335,788.4948778565799,0.05921052631578949
336,791.2923561859734,0.08552631578947367
337,791.2923561859734,0.07894736842105265
338,794.0898345153664,0.07894736842105265
339,794.0898345153664,0.08552631578947367
340,796.8873128447594,0.07236842105263153
341,796.8873128447594,0.07894736842105265
342,799.6847911741529,0.07236842105263153
343,799.6847911741529,0.06578947368421051
344,802.4822695035459,0.06578947368421051
345,802.4822695035459,0.05921052631578949
346,805.2797478329394,0.05921052631578949
347,805.2797478329394,0.052631578947368474
348,805.2797478329394,0.046052631578947345
349,808.0772261623324,0.046052631578947345
350,810.8747044917259,0.03947368421052633
351,810.8747044917259,0.046052631578947345
352,813.6721828211189,0.03947368421052633
353,816.4696611505124,0.03289473684210531
354,816.4696611505124,0.03947368421052633
355,819.2671394799054,0.03289473684210531
356,822.0646178092989,0.03289473684210531
357,824.8620961386919,0.03289473684210531
358,827.6595744680849,0.03289473684210531
359,830.4570527974784,0.03289473684210531
360,833.2545311268714,0.03289473684210531
361,836.0520094562648,0.03289473684210531
362,838.8494877856579,0.03289473684210531
363,841.6469661150513,0.03289473684210531
364,844.4444444444443,0.03289473684210531
365,844.4444444444443,0.02631578947368418
366,847.2419227738378,0.02631578947368418
367,850.0394011032308,0.02631578947368418
368,850.0394011032308,0.019736842105263164
369,852.8368794326243,0.019736842105263164
370,855.6343577620173,0.019736842105263164
371,858.4318360914103,0.019736842105263164
372,861.2293144208038,0.019736842105263164
373,864.0267927501968,0.019736842105263164
374,866.8242710795903,0.019736842105263164
375,869.6217494089833,0.02631578947368418
376,869.6217494089833,0.019736842105263164
377,872.4192277383768,0.02631578947368418
378,875.2167060677698,0.03289473684210531
379,875.2167060677698,0.02631578947368418
380,878.0141843971633,0.03289473684210531
381,880.8116627265563,0.03289473684210531
382,883.6091410559497,0.03947368421052633
383,883.6091410559497,0.03289473684210531
384,886.4066193853428,0.03947368421052633
385,889.2040977147362,0.03947368421052633
386,889.2040977147362,0.046052631578947345
387,892.0015760441293,0.046052631578947345
388,894.7990543735223,0.052631578947368474
389,894.7990543735223,0.046052631578947345
390,897.5965327029157,0.052631578947368474
391,897.5965327029157,0.05921052631578949
392,900.3940110323088,0.05921052631578949
393,903.1914893617022,0.06578947368421051
394,903.1914893617022,0.05921052631578949
395,905.9889676910952,0.07236842105263153
396,905.9889676910952,0.06578947368421051
397,908.7864460204887,0.07894736842105265
398,908.7864460204887,0.07236842105263153
399,911.5839243498817,0.09210526315789469
400,911.5839243498817,0.07894736842105265
401,911.5839243498817,0.08552631578947367
402,914.3814026792752,0.10526315789473684
403,914.3814026792752,0.09210526315789469
404,914.3814026792752,0.09868421052631582
405,917.1788810086682,0.11842105263157898
406,917.1788810086682,0.11184210526315785
407,917.1788810086682,0.10526315789473684
408,919.9763593380617,0.11842105263157898
409,919.9763593380617,0.125
410,919.9763593380617,0.13157894736842102
411,922.7738376674547,0.14473684210526316
412,922.7738376674547,0.16447368421052633
413,922.7738376674547,0.15131578947368418
414,922.7738376674547,0.1578947368421053
415,922.7738376674547,0.13815789473684215
416,925.5713159968477,0.1842105263157895
417,925.5713159968477,0.17105263157894735
418,925.5713159968477,0.16447368421052633
419,925.5713159968477,0.17763157894736847
420,928.3687943262412,0.1907894736842105
421,928.3687943262412,0.19736842105263153
422,928.3687943262412,0.20394736842105265
423,928.3687943262412,0.21052631578947367
424,928.3687943262412,0.1842105263157895
425,931.1662726556342,0.21052631578947367
426,931.1662726556342,0.25
427,931.1662726556342,0.256578947368421
428,931.1662726556342,0.23684210526315785
429,931.1662726556342,0.24342105263157898
430,931.1662726556342,0.23026315789473684
431,931.1662726556342,0.2171052631578947
432,931.1662726556342,0.22368421052631582
433,933.9637509850277,0.26973684210526316
434,933.9637509850277,0.2828947368421053
435,933.9637509850277,0.256578947368421
436,933.9637509850277,0.26315789473684215
437,933.9637509850277,0.2763157894736842
438,936.7612293144207,0.3026315789473685
439,936.7612293144207,0.32894736842105265
440,936.7612293144207,0.3092105263157895
441,936.7612293144207,0.2894736842105263
442,936.7612293144207,0.2828947368421053
443,936.7612293144207,0.3223684210526315
444,936.7612293144207,0.3157894736842105
445,936.7612293144207,0.3355263157894737
446,936.7612293144207,0.29605263157894735
447,939.5587076438142,0.3421052631578947
448,939.5587076438142,0.35526315789473684
449,939.5587076438142,0.36184210526315785
450,939.5587076438142,0.3486842105263158
451,939.5587076438142,0.3355263157894737
452,942.3561859732072,0.368421052631579
453,942.3561859732072,0.36184210526315785
454,942.3561859732072,0.375
455,945.1536643026006,0.3486842105263158
456,945.1536643026006,0.35526315789473684
457,945.1536643026006,0.36184210526315785
458,945.1536643026006,0.368421052631579
459,945.1536643026006,0.375
460,947.9511426319937,0.3157894736842105
461,947.9511426319937,0.3223684210526315
462,947.9511426319937,0.3092105263157895
463,947.9511426319937,0.2828947368421053
464,947.9511426319937,0.32894736842105265
465,947.9511426319937,0.3486842105263158
466,947.9511426319937,0.29605263157894735
467,947.9511426319937,0.2894736842105263
468,947.9511426319937,0.3355263157894737
469,947.9511426319937,0.3421052631578947
470,947.9511426319937,0.3026315789473685
471,950.7486209613871,0.2828947368421053
472,950.7486209613871,0.26973684210526316
473,950.7486209613871,0.2763157894736842
