,wavenumbers,absorbance
0,452.797478329393,0.02631578947368418
1,452.797478329393,0.03289473684210531
2,455.5949566587865,0.03289473684210531
3,458.3924349881795,0.02631578947368418
4,458.3924349881795,0.03289473684210531
5,461.189913317573,0.02631578947368418
6,463.987391646966,0.02631578947368418
7,463.987391646966,0.03289473684210531
8,466.78486997635946,0.03289473684210531
9,469.5823483057525,0.03289473684210531
10,472.37982663514595,0.03289473684210531
11,475.17730496453896,0.03289473684210531
12,477.97478329393243,0.03289473684210531
13,480.77226162332545,0.03289473684210531
14,483.56973995271846,0.03289473684210531
15,483.56973995271846,0.03947368421052633
16,486.36721828211193,0.03947368421052633
17,489.16469661150495,0.03947368421052633
18,489.16469661150495,0.03289473684210531
19,491.9621749408984,0.03289473684210531
20,494.75965327029144,0.03289473684210531
21,497.5571315996849,0.03289473684210531
22,500.3546099290779,0.03289473684210531
23,503.1520882584714,0.03289473684210531
24,505.9495665878644,0.03289473684210531
25,508.7470449172579,0.03289473684210531
26,511.5445232466509,0.02631578947368418
27,511.5445232466509,0.03289473684210531
28,514.3420015760439,0.02631578947368418
29,517.1394799054374,0.02631578947368418
30,519.9369582348304,0.02631578947368418
31,522.7344365642239,0.02631578947368418
32,525.5319148936169,0.02631578947368418
33,528.3293932230104,0.02631578947368418
34,531.1268715524034,0.03289473684210531
35,531.1268715524034,0.02631578947368418
36,533.9243498817968,0.03289473684210531
37,536.7218282111899,0.03289473684210531
38,539.5193065405833,0.02631578947368418
39,539.5193065405833,0.03289473684210531
40,542.3167848699763,0.02631578947368418
41,545.1142631993694,0.02631578947368418
42,547.9117415287628,0.02631578947368418
43,550.7092198581558,0.03289473684210531
44,550.7092198581558,0.02631578947368418
45,553.5066981875493,0.03289473684210531
46,556.3041765169423,0.03289473684210531
47,559.1016548463358,0.03289473684210531
48,561.8991331757288,0.03289473684210531
49,564.6966115051223,0.03289473684210531
50,567.4940898345153,0.03289473684210531
51,570.2915681639088,0.03289473684210531
52,573.0890464933018,0.03289473684210531
53,575.8865248226948,0.02631578947368418
54,575.8865248226948,0.03289473684210531
55,578.6840031520883,0.02631578947368418
56,581.4814814814813,0.02631578947368418
57,584.2789598108748,0.02631578947368418
58,587.0764381402678,0.02631578947368418
59,587.0764381402678,0.019736842105263164
60,589.8739164696613,0.019736842105263164
61,592.6713947990543,0.019736842105263164
62,595.4688731284477,0.019736842105263164
63,598.2663514578408,0.019736842105263164
64,601.0638297872342,0.019736842105263164
65,603.8613081166272,0.019736842105263164
66,606.6587864460207,0.019736842105263164
67,609.4562647754137,0.019736842105263164
68,612.2537431048067,0.019736842105263164
69,612.2537431048067,0.02631578947368418
70,615.0512214342002,0.02631578947368418
71,617.8486997635932,0.02631578947368418
72,620.6461780929867,0.02631578947368418
73,623.4436564223797,0.02631578947368418
74,626.2411347517732,0.02631578947368418
75,626.2411347517732,0.019736842105263164
76,629.0386130811662,0.019736842105263164
77,629.0386130811662,0.02631578947368418
78,631.8360914105597,0.02631578947368418
79,631.8360914105597,0.019736842105263164
80,634.6335697399527,0.02631578947368418
81,637.4310480693462,0.02631578947368418
82,640.2285263987392,0.02631578947368418
83,643.0260047281322,0.02631578947368418
84,643.0260047281322,0.03289473684210531
85,645.8234830575257,0.03947368421052633
86,645.8234830575257,0.03289473684210531
87,648.6209613869187,0.03947368421052633
88,651.4184397163122,0.03947368421052633
89,651.4184397163122,0.02631578947368418
90,651.4184397163122,0.03289473684210531
91,654.2159180457052,0.02631578947368418
92,654.2159180457052,0.019736842105263164
93,657.0133963750986,0.019736842105263164
94,659.8108747044917,0.019736842105263164
95,662.6083530338851,0.019736842105263164
96,665.4058313632781,0.019736842105263164
97,668.2033096926716,0.019736842105263164
98,671.0007880220646,0.019736842105263164
99,673.7982663514576,0.019736842105263164
100,676.5957446808511,0.019736842105263164
101,679.3932230102441,0.019736842105263164
102,682.1907013396376,0.019736842105263164
103,682.1907013396376,0.02631578947368418
104,682.1907013396376,0.03289473684210531
105,684.9881796690306,0.03289473684210531
106,684.9881796690306,0.03947368421052633
107,687.7856579984241,0.03947368421052633
108,687.7856579984241,0.052631578947368474
109,687.7856579984241,0.046052631578947345
110,690.5831363278171,0.05921052631578949
111,690.5831363278171,0.052631578947368474
112,693.3806146572106,0.05921052631578949
113,693.3806146572106,0.06578947368421051
114,696.1780929866036,0.07236842105263153
115,696.1780929866036,0.06578947368421051
116,696.1780929866036,0.07894736842105265
117,698.9755713159971,0.07894736842105265
118,698.9755713159971,0.08552631578947367
119,698.9755713159971,0.09210526315789469
120,698.9755713159971,0.10526315789473684
121,698.9755713159971,0.09868421052631582
122,701.7730496453901,0.10526315789473684
123,704.5705279747831,0.10526315789473684
124,704.5705279747831,0.09210526315789469
125,704.5705279747831,0.09868421052631582
126,707.3680063041766,0.06578947368421051
127,707.3680063041766,0.08552631578947367
128,707.3680063041766,0.07236842105263153
129,707.3680063041766,0.07894736842105265
130,707.3680063041766,0.05921052631578949
131,707.3680063041766,0.09210526315789469
132,710.1654846335696,0.046052631578947345
133,710.1654846335696,0.05921052631578949
134,710.1654846335696,0.052631578947368474
135,712.962962962963,0.046052631578947345
136,715.7604412923561,0.046052631578947345
137,718.5579196217495,0.052631578947368474
138,718.5579196217495,0.046052631578947345
139,721.3553979511425,0.052631578947368474
140,724.152876280536,0.05921052631578949
141,724.152876280536,0.052631578947368474
142,726.950354609929,0.07236842105263153
143,726.950354609929,0.07894736842105265
144,726.950354609929,0.06578947368421051
145,726.950354609929,0.05921052631578949
146,729.7478329393225,0.09210526315789469
147,729.7478329393225,0.09868421052631582
148,729.7478329393225,0.08552631578947367
149,729.7478329393225,0.07894736842105265
150,732.5453112687155,0.14473684210526316
151,732.5453112687155,0.13815789473684215
152,732.5453112687155,0.13157894736842102
153,732.5453112687155,0.15131578947368418
154,732.5453112687155,0.1578947368421053
155,732.5453112687155,0.11842105263157898
156,732.5453112687155,0.125
157,732.5453112687155,0.11184210526315785
158,732.5453112687155,0.09868421052631582
159,732.5453112687155,0.10526315789473684
160,735.3427895981085,0.17763157894736847
161,735.3427895981085,0.16447368421052633
162,735.3427895981085,0.17105263157894735
163,735.3427895981085,0.1907894736842105
164,735.3427895981085,0.1578947368421053
165,735.3427895981085,0.1842105263157895
166,738.140267927502,0.19736842105263153
167,738.140267927502,0.2171052631578947
168,738.140267927502,0.1907894736842105
169,738.140267927502,0.20394736842105265
170,738.140267927502,0.21052631578947367
171,740.937746256895,0.2171052631578947
172,740.937746256895,0.21052631578947367
173,743.7352245862885,0.1842105263157895
174,743.7352245862885,0.21052631578947367
175,743.7352245862885,0.19736842105263153
176,743.7352245862885,0.16447368421052633
177,743.7352245862885,0.17763157894736847
178,743.7352245862885,0.17105263157894735
179,743.7352245862885,0.20394736842105265
180,743.7352245862885,0.1907894736842105
181,746.5327029156815,0.13815789473684215
182,746.5327029156815,0.14473684210526316
183,746.5327029156815,0.16447368421052633
184,746.5327029156815,0.15131578947368418
185,746.5327029156815,0.1578947368421053
186,749.330181245075,0.11842105263157898
187,749.330181245075,0.11184210526315785
188,749.330181245075,0.10526315789473684
189,749.330181245075,0.09210526315789469
190,749.330181245075,0.09868421052631582
191,749.330181245075,0.125
192,749.330181245075,0.13815789473684215
193,749.330181245075,0.13157894736842102
194,752.127659574468,0.07894736842105265
195,752.127659574468,0.09210526315789469
196,752.127659574468,0.08552631578947367
197,754.9251379038615,0.07894736842105265
198,754.9251379038615,0.05921052631578949
199,754.9251379038615,0.07236842105263153
200,754.9251379038615,0.06578947368421051
201,757.7226162332545,0.05921052631578949
202,760.520094562648,0.05921052631578949
203,763.317572892041,0.05921052631578949
204,763.317572892041,0.06578947368421051
205,766.115051221434,0.06578947368421051
206,768.9125295508275,0.06578947368421051
207,771.7100078802205,0.06578947368421051
208,774.507486209614,0.06578947368421051
209,777.304964539007,0.06578947368421051
210,780.1024428684004,0.05921052631578949
211,780.1024428684004,0.06578947368421051
212,782.8999211977934,0.05921052631578949
213,785.6973995271869,0.05921052631578949
214,788.4948778565799,0.05921052631578949
215,788.4948778565799,0.052631578947368474
216,791.2923561859734,0.052631578947368474
217,794.0898345153664,0.046052631578947345
218,794.0898345153664,0.052631578947368474
219,796.8873128447594,0.046052631578947345
220,799.6847911741529,0.046052631578947345
221,799.6847911741529,0.03947368421052633
222,799.6847911741529,0.03289473684210531
223,802.4822695035459,0.02631578947368418
224,802.4822695035459,0.03289473684210531
225,805.2797478329394,0.019736842105263164
226,805.2797478329394,0.02631578947368418
227,808.0772261623324,0.019736842105263164
228,808.0772261623324,0.02631578947368418
229,810.8747044917259,0.019736842105263164
230,813.6721828211189,0.019736842105263164
231,816.4696611505124,0.019736842105263164
232,816.4696611505124,0.02631578947368418
233,819.2671394799054,0.02631578947368418
234,819.2671394799054,0.019736842105263164
235,822.0646178092989,0.019736842105263164
236,824.8620961386919,0.019736842105263164
237,827.6595744680849,0.019736842105263164
238,830.4570527974784,0.019736842105263164
239,830.4570527974784,0.02631578947368418
240,833.2545311268714,0.019736842105263164
241,833.2545311268714,0.02631578947368418
242,836.0520094562648,0.02631578947368418
243,838.8494877856579,0.02631578947368418
244,841.6469661150513,0.03289473684210531
245,841.6469661150513,0.02631578947368418
246,844.4444444444443,0.03289473684210531
247,847.2419227738378,0.03289473684210531
248,850.0394011032308,0.03289473684210531
249,852.8368794326243,0.03289473684210531
250,855.6343577620173,0.03289473684210531
251,858.4318360914103,0.03289473684210531
252,861.2293144208038,0.03289473684210531
253,864.0267927501968,0.03289473684210531
254,866.8242710795903,0.03289473684210531
255,866.8242710795903,0.03947368421052633
256,869.6217494089833,0.03947368421052633
257,872.4192277383768,0.03947368421052633
258,875.2167060677698,0.03947368421052633
259,878.0141843971633,0.03947368421052633
260,880.8116627265563,0.03947368421052633
261,883.6091410559497,0.03947368421052633
262,886.4066193853428,0.03947368421052633
263,889.2040977147362,0.03947368421052633
264,892.0015760441293,0.03947368421052633
265,894.7990543735223,0.046052631578947345
266,894.7990543735223,0.03947368421052633
267,897.5965327029157,0.046052631578947345
268,897.5965327029157,0.03947368421052633
269,900.3940110323088,0.046052631578947345
270,900.3940110323088,0.03947368421052633
271,903.1914893617022,0.046052631578947345
272,905.9889676910952,0.03947368421052633
273,905.9889676910952,0.046052631578947345
274,908.7864460204887,0.03947368421052633
275,911.5839243498817,0.03947368421052633
276,914.3814026792752,0.03947368421052633
277,917.1788810086682,0.03947368421052633
278,919.9763593380617,0.03947368421052633
279,922.7738376674547,0.03947368421052633
280,922.7738376674547,0.046052631578947345
281,925.5713159968477,0.046052631578947345
282,925.5713159968477,0.03947368421052633
283,928.3687943262412,0.046052631578947345
284,928.3687943262412,0.03947368421052633
285,931.1662726556342,0.046052631578947345
286,931.1662726556342,0.03947368421052633
287,933.9637509850277,0.03947368421052633
288,936.7612293144207,0.03947368421052633
289,939.5587076438142,0.03947368421052633
290,942.3561859732072,0.03947368421052633
291,942.3561859732072,0.046052631578947345
292,945.1536643026006,0.046052631578947345
293,947.9511426319937,0.052631578947368474
294,947.9511426319937,0.046052631578947345
295,950.7486209613871,0.05921052631578949
296,950.7486209613871,0.052631578947368474
297,953.5460992907801,0.05921052631578949
298,953.5460992907801,0.06578947368421051
299,956.3435776201732,0.06578947368421051
300,956.3435776201732,0.07236842105263153
301,959.1410559495666,0.07236842105263153
302,961.9385342789597,0.07894736842105265
303,961.9385342789597,0.07236842105263153
304,964.7360126083531,0.07894736842105265
305,967.5334909377461,0.08552631578947367
306,967.5334909377461,0.07894736842105265
307,970.3309692671396,0.08552631578947367
308,973.1284475965326,0.08552631578947367
309,973.1284475965326,0.07894736842105265
310,975.9259259259261,0.07894736842105265
311,978.7234042553191,0.07894736842105265
312,981.5208825847126,0.07894736842105265
313,984.3183609141056,0.07894736842105265
314,987.1158392434986,0.07894736842105265
315,989.9133175728921,0.07894736842105265
316,989.9133175728921,0.07236842105263153
317,992.7107959022851,0.07894736842105265
318,992.7107959022851,0.07236842105263153
319,995.5082742316786,0.07894736842105265
320,998.3057525610716,0.07894736842105265
321,1001.103230890465,0.07894736842105265
322,1003.9007092198581,0.08552631578947367
323,1003.9007092198581,0.07894736842105265
324,1006.6981875492515,0.08552631578947367
325,1009.4956658786446,0.08552631578947367
326,1012.293144208038,0.09210526315789469
327,1012.293144208038,0.08552631578947367
328,1015.090622537431,0.09210526315789469
329,1017.8881008668241,0.09210526315789469
330,1017.8881008668241,0.09868421052631582
331,1020.6855791962175,0.10526315789473684
332,1020.6855791962175,0.09868421052631582
333,1023.4830575256105,0.11184210526315785
334,1023.4830575256105,0.10526315789473684
335,1026.280535855004,0.125
336,1026.280535855004,0.11842105263157898
337,1026.280535855004,0.11184210526315785
338,1029.078014184397,0.13815789473684215
339,1029.078014184397,0.125
340,1029.078014184397,0.14473684210526316
341,1029.078014184397,0.15131578947368418
342,1029.078014184397,0.13157894736842102
343,1031.8754925137905,0.1578947368421053
344,1031.8754925137905,0.15131578947368418
345,1031.8754925137905,0.17105263157894735
346,1031.8754925137905,0.16447368421052633
347,1034.6729708431835,0.20394736842105265
348,1034.6729708431835,0.2171052631578947
349,1034.6729708431835,0.21052631578947367
350,1034.6729708431835,0.17105263157894735
351,1034.6729708431835,0.17763157894736847
352,1034.6729708431835,0.1842105263157895
353,1034.6729708431835,0.1907894736842105
354,1034.6729708431835,0.19736842105263153
355,1037.470449172577,0.2171052631578947
356,1040.26792750197,0.20394736842105265
357,1040.26792750197,0.2171052631578947
358,1040.26792750197,0.21052631578947367
359,1043.0654058313635,0.20394736842105265
360,1043.0654058313635,0.19736842105263153
361,1045.8628841607565,0.19736842105263153
362,1048.6603624901495,0.20394736842105265
363,1048.6603624901495,0.19736842105263153
364,1051.457840819543,0.21052631578947367
365,1051.457840819543,0.20394736842105265
366,1054.255319148936,0.21052631578947367
367,1054.255319148936,0.23026315789473684
368,1054.255319148936,0.22368421052631582
369,1054.255319148936,0.2171052631578947
370,1057.0527974783295,0.23684210526315785
371,1057.0527974783295,0.24342105263157898
372,1057.0527974783295,0.23026315789473684
373,1057.0527974783295,0.25
374,1059.8502758077225,0.256578947368421
375,1059.8502758077225,0.26973684210526316
376,1059.8502758077225,0.25
377,1059.8502758077225,0.26315789473684215
378,1059.8502758077225,0.3026315789473685
379,1059.8502758077225,0.2763157894736842
380,1059.8502758077225,0.2894736842105263
381,1059.8502758077225,0.2828947368421053
382,1059.8502758077225,0.29605263157894735
383,1059.8502758077225,0.3092105263157895
384,1062.647754137116,0.32894736842105265
385,1062.647754137116,0.3355263157894737
386,1062.647754137116,0.3092105263157895
387,1062.647754137116,0.3223684210526315
388,1062.647754137116,0.3157894736842105
389,1065.445232466509,0.375
390,1065.445232466509,0.36184210526315785
391,1065.445232466509,0.3421052631578947
392,1065.445232466509,0.3486842105263158
393,1065.445232466509,0.368421052631579
394,1065.445232466509,0.381578947368421
395,1065.445232466509,0.35526315789473684
396,1065.445232466509,0.3355263157894737
397,1068.2427107959024,0.381578947368421
398,1071.0401891252955,0.375
399,1071.0401891252955,0.381578947368421
400,1073.837667454689,0.3421052631578947
401,1073.837667454689,0.3486842105263158
402,1073.837667454689,0.375
403,1073.837667454689,0.3355263157894737
404,1073.837667454689,0.3157894736842105
405,1073.837667454689,0.36184210526315785
406,1073.837667454689,0.32894736842105265
407,1073.837667454689,0.3223684210526315
408,1073.837667454689,0.368421052631579
409,1073.837667454689,0.35526315789473684
410,1076.635145784082,0.29605263157894735
411,1076.635145784082,0.2894736842105263
412,1076.635145784082,0.3026315789473685
413,1076.635145784082,0.3092105263157895
414,1076.635145784082,0.2828947368421053
415,1076.635145784082,0.2763157894736842
416,1076.635145784082,0.3157894736842105
417,1079.432624113475,0.21052631578947367
418,1079.432624113475,0.26315789473684215
419,1079.432624113475,0.19736842105263153
420,1079.432624113475,0.26973684210526316
421,1079.432624113475,0.24342105263157898
422,1079.432624113475,0.23684210526315785
423,1079.432624113475,0.256578947368421
424,1079.432624113475,0.2171052631578947
425,1079.432624113475,0.23026315789473684
426,1079.432624113475,0.22368421052631582
427,1079.432624113475,0.25
428,1079.432624113475,0.20394736842105265
429,1079.432624113475,0.2763157894736842
430,1082.2301024428684,0.1842105263157895
431,1082.2301024428684,0.1907894736842105
432,1082.2301024428684,0.17105263157894735
433,1082.2301024428684,0.16447368421052633
434,1082.2301024428684,0.19736842105263153
435,1082.2301024428684,0.17763157894736847
436,1085.0275807722614,0.15131578947368418
437,1085.0275807722614,0.125
438,1085.0275807722614,0.16447368421052633
439,1085.0275807722614,0.14473684210526316
440,1085.0275807722614,0.1578947368421053
441,1085.0275807722614,0.13157894736842102
442,1085.0275807722614,0.13815789473684215
443,1087.825059101655,0.125
444,1087.825059101655,0.11842105263157898
445,1090.622537431048,0.11842105263157898
446,1093.4200157604414,0.11842105263157898
447,1093.4200157604414,0.125
448,1096.2174940898344,0.14473684210526316
449,1096.2174940898344,0.13815789473684215
450,1096.2174940898344,0.13157894736842102
451,1096.2174940898344,0.125
452,1099.014972419228,0.1578947368421053
453,1099.014972419228,0.15131578947368418
454,1099.014972419228,0.14473684210526316
455,1099.014972419228,0.16447368421052633
456,1101.812450748621,0.16447368421052633
457,1101.812450748621,0.17105263157894735
458,1101.812450748621,0.1907894736842105
459,1101.812450748621,0.17763157894736847
460,1101.812450748621,0.1842105263157895
461,1104.6099290780144,0.25
462,1104.6099290780144,0.20394736842105265
463,1104.6099290780144,0.22368421052631582
464,1104.6099290780144,0.2171052631578947
465,1104.6099290780144,0.1907894736842105
466,1104.6099290780144,0.19736842105263153
467,1104.6099290780144,0.24342105263157898
468,1104.6099290780144,0.23684210526315785
469,1104.6099290780144,0.21052631578947367
