,wavenumbers,absorbance
0,452.797478329393,0.02631578947368418
1,455.5949566587865,0.02631578947368418
2,458.3924349881795,0.02631578947368418
3,458.3924349881795,0.03289473684210531
4,461.189913317573,0.02631578947368418
5,463.987391646966,0.02631578947368418
6,466.78486997635946,0.02631578947368418
7,469.5823483057525,0.02631578947368418
8,472.37982663514595,0.02631578947368418
9,472.37982663514595,0.03289473684210531
10,475.17730496453896,0.03289473684210531
11,477.97478329393243,0.03289473684210531
12,477.97478329393243,0.02631578947368418
13,480.77226162332545,0.02631578947368418
14,483.56973995271846,0.02631578947368418
15,486.36721828211193,0.02631578947368418
16,489.16469661150495,0.02631578947368418
17,489.16469661150495,0.03289473684210531
18,491.9621749408984,0.03289473684210531
19,494.75965327029144,0.03289473684210531
20,497.5571315996849,0.03289473684210531
21,500.3546099290779,0.03289473684210531
22,503.1520882584714,0.03289473684210531
23,505.9495665878644,0.03289473684210531
24,508.7470449172579,0.03289473684210531
25,511.5445232466509,0.03289473684210531
26,514.3420015760439,0.03947368421052633
27,514.3420015760439,0.03289473684210531
28,514.3420015760439,0.046052631578947345
29,517.1394799054374,0.06578947368421051
30,517.1394799054374,0.05921052631578949
31,517.1394799054374,0.046052631578947345
32,517.1394799054374,0.052631578947368474
33,519.9369582348304,0.052631578947368474
34,519.9369582348304,0.03947368421052633
35,519.9369582348304,0.046052631578947345
36,519.9369582348304,0.03289473684210531
37,519.9369582348304,0.06578947368421051
38,519.9369582348304,0.05921052631578949
39,522.7344365642239,0.03289473684210531
40,525.5319148936169,0.03947368421052633
41,525.5319148936169,0.03289473684210531
42,528.3293932230104,0.03947368421052633
43,528.3293932230104,0.052631578947368474
44,528.3293932230104,0.046052631578947345
45,528.3293932230104,0.05921052631578949
46,531.1268715524034,0.046052631578947345
47,531.1268715524034,0.05921052631578949
48,531.1268715524034,0.052631578947368474
49,533.9243498817968,0.03947368421052633
50,533.9243498817968,0.03289473684210531
51,533.9243498817968,0.046052631578947345
52,536.7218282111899,0.03289473684210531
53,539.5193065405833,0.03289473684210531
54,542.3167848699763,0.03289473684210531
55,545.1142631993694,0.03289473684210531
56,547.9117415287628,0.03289473684210531
57,550.7092198581558,0.03289473684210531
58,553.5066981875493,0.03289473684210531
59,556.3041765169423,0.03289473684210531
60,559.1016548463358,0.03289473684210531
61,559.1016548463358,0.03947368421052633
62,561.8991331757288,0.03947368421052633
63,564.6966115051223,0.03947368421052633
64,567.4940898345153,0.03947368421052633
65,570.2915681639088,0.03947368421052633
66,573.0890464933018,0.03947368421052633
67,575.8865248226948,0.03947368421052633
68,578.6840031520883,0.03947368421052633
69,581.4814814814813,0.03947368421052633
70,584.2789598108748,0.03947368421052633
71,587.0764381402678,0.03947368421052633
72,589.8739164696613,0.03947368421052633
73,592.6713947990543,0.03947368421052633
74,595.4688731284477,0.03947368421052633
75,598.2663514578408,0.03947368421052633
76,601.0638297872342,0.03947368421052633
77,603.8613081166272,0.03947368421052633
78,606.6587864460207,0.03947368421052633
79,609.4562647754137,0.03947368421052633
80,612.2537431048067,0.03947368421052633
81,612.2537431048067,0.046052631578947345
82,615.0512214342002,0.046052631578947345
83,615.0512214342002,0.03947368421052633
84,617.8486997635932,0.046052631578947345
85,620.6461780929867,0.046052631578947345
86,623.4436564223797,0.046052631578947345
87,626.2411347517732,0.046052631578947345
88,629.0386130811662,0.046052631578947345
89,631.8360914105597,0.052631578947368474
90,631.8360914105597,0.046052631578947345
91,634.6335697399527,0.046052631578947345
92,637.4310480693462,0.046052631578947345
93,640.2285263987392,0.046052631578947345
94,640.2285263987392,0.052631578947368474
95,643.0260047281322,0.046052631578947345
96,643.0260047281322,0.052631578947368474
97,645.8234830575257,0.052631578947368474
98,645.8234830575257,0.046052631578947345
99,648.6209613869187,0.052631578947368474
100,651.4184397163122,0.052631578947368474
101,654.2159180457052,0.052631578947368474
102,657.0133963750986,0.052631578947368474
103,659.8108747044917,0.052631578947368474
104,662.6083530338851,0.052631578947368474
105,665.4058313632781,0.052631578947368474
106,668.2033096926716,0.052631578947368474
107,671.0007880220646,0.052631578947368474
108,673.7982663514576,0.052631578947368474
109,676.5957446808511,0.052631578947368474
110,679.3932230102441,0.052631578947368474
111,682.1907013396376,0.05921052631578949
112,682.1907013396376,0.052631578947368474
113,684.9881796690306,0.05921052631578949
114,687.7856579984241,0.05921052631578949
115,690.5831363278171,0.05921052631578949
116,690.5831363278171,0.06578947368421051
117,693.3806146572106,0.06578947368421051
118,693.3806146572106,0.07236842105263153
119,696.1780929866036,0.07236842105263153
120,698.9755713159971,0.07236842105263153
121,701.7730496453901,0.07236842105263153
122,704.5705279747831,0.07236842105263153
123,707.3680063041766,0.07236842105263153
124,710.1654846335696,0.07236842105263153
125,712.962962962963,0.07236842105263153
126,712.962962962963,0.08552631578947367
127,712.962962962963,0.07894736842105265
128,715.7604412923561,0.09210526315789469
129,715.7604412923561,0.08552631578947367
130,718.5579196217495,0.09210526315789469
131,721.3553979511425,0.08552631578947367
132,721.3553979511425,0.09210526315789469
133,724.152876280536,0.08552631578947367
134,726.950354609929,0.08552631578947367
135,729.7478329393225,0.07894736842105265
136,729.7478329393225,0.08552631578947367
137,732.5453112687155,0.07894736842105265
138,735.3427895981085,0.07894736842105265
139,738.140267927502,0.07894736842105265
140,740.937746256895,0.07894736842105265
141,743.7352245862885,0.07894736842105265
142,743.7352245862885,0.07236842105263153
143,746.5327029156815,0.07236842105263153
144,749.330181245075,0.07236842105263153
145,752.127659574468,0.07236842105263153
146,754.9251379038615,0.07236842105263153
147,757.7226162332545,0.07236842105263153
148,760.520094562648,0.06578947368421051
149,760.520094562648,0.07236842105263153
150,763.317572892041,0.06578947368421051
151,766.115051221434,0.06578947368421051
152,768.9125295508275,0.07236842105263153
153,768.9125295508275,0.06578947368421051
154,771.7100078802205,0.06578947368421051
155,774.507486209614,0.06578947368421051
156,777.304964539007,0.06578947368421051
157,780.1024428684004,0.06578947368421051
158,780.1024428684004,0.05921052631578949
159,782.8999211977934,0.05921052631578949
160,785.6973995271869,0.05921052631578949
161,788.4948778565799,0.05921052631578949
162,791.2923561859734,0.05921052631578949
163,794.0898345153664,0.05921052631578949
164,796.8873128447594,0.05921052631578949
165,799.6847911741529,0.06578947368421051
166,799.6847911741529,0.05921052631578949
167,802.4822695035459,0.06578947368421051
168,805.2797478329394,0.06578947368421051
169,808.0772261623324,0.06578947368421051
170,810.8747044917259,0.06578947368421051
171,813.6721828211189,0.06578947368421051
172,816.4696611505124,0.06578947368421051
173,819.2671394799054,0.06578947368421051
174,819.2671394799054,0.05921052631578949
175,822.0646178092989,0.05921052631578949
176,824.8620961386919,0.05921052631578949
177,824.8620961386919,0.052631578947368474
178,827.6595744680849,0.052631578947368474
179,830.4570527974784,0.052631578947368474
180,833.2545311268714,0.052631578947368474
181,836.0520094562648,0.052631578947368474
182,838.8494877856579,0.052631578947368474
183,841.6469661150513,0.052631578947368474
184,844.4444444444443,0.052631578947368474
185,847.2419227738378,0.052631578947368474
186,850.0394011032308,0.052631578947368474
187,852.8368794326243,0.052631578947368474
188,855.6343577620173,0.052631578947368474
189,858.4318360914103,0.052631578947368474
190,861.2293144208038,0.052631578947368474
191,864.0267927501968,0.05921052631578949
192,864.0267927501968,0.052631578947368474
193,866.8242710795903,0.05921052631578949
194,866.8242710795903,0.052631578947368474
195,869.6217494089833,0.052631578947368474
196,872.4192277383768,0.052631578947368474
197,875.2167060677698,0.052631578947368474
198,878.0141843971633,0.052631578947368474
199,880.8116627265563,0.052631578947368474
200,883.6091410559497,0.052631578947368474
201,886.4066193853428,0.052631578947368474
202,889.2040977147362,0.052631578947368474
203,892.0015760441293,0.052631578947368474
204,894.7990543735223,0.052631578947368474
205,894.7990543735223,0.046052631578947345
206,897.5965327029157,0.046052631578947345
207,900.3940110323088,0.046052631578947345
208,903.1914893617022,0.046052631578947345
209,905.9889676910952,0.046052631578947345
210,908.7864460204887,0.046052631578947345
211,911.5839243498817,0.052631578947368474
212,911.5839243498817,0.046052631578947345
213,914.3814026792752,0.052631578947368474
214,917.1788810086682,0.052631578947368474
215,919.9763593380617,0.052631578947368474
216,922.7738376674547,0.052631578947368474
217,925.5713159968477,0.052631578947368474
218,928.3687943262412,0.052631578947368474
219,931.1662726556342,0.052631578947368474
220,933.9637509850277,0.052631578947368474
221,936.7612293144207,0.052631578947368474
222,939.5587076438142,0.052631578947368474
223,942.3561859732072,0.052631578947368474
224,945.1536643026006,0.052631578947368474
225,947.9511426319937,0.052631578947368474
226,950.7486209613871,0.052631578947368474
227,953.5460992907801,0.05921052631578949
228,953.5460992907801,0.052631578947368474
229,959.1410559495666,0.05921052631578949
230,961.9385342789597,0.05921052631578949
231,964.7360126083531,0.05921052631578949
232,967.5334909377461,0.05921052631578949
233,970.3309692671396,0.05921052631578949
234,973.1284475965326,0.05921052631578949
235,975.9259259259261,0.05921052631578949
236,978.7234042553191,0.05921052631578949
237,981.5208825847126,0.05921052631578949
238,984.3183609141056,0.05921052631578949
239,987.1158392434986,0.05921052631578949
240,989.9133175728921,0.05921052631578949
241,989.9133175728921,0.06578947368421051
242,992.7107959022851,0.06578947368421051
243,995.5082742316786,0.06578947368421051
244,998.3057525610716,0.06578947368421051
245,998.3057525610716,0.07236842105263153
246,1001.103230890465,0.07894736842105265
247,1001.103230890465,0.07236842105263153
248,1003.9007092198581,0.08552631578947367
249,1003.9007092198581,0.07894736842105265
250,1006.6981875492515,0.09210526315789469
251,1006.6981875492515,0.08552631578947367
252,1009.4956658786446,0.09210526315789469
253,1009.4956658786446,0.10526315789473684
254,1009.4956658786446,0.09868421052631582
255,1012.293144208038,0.10526315789473684
256,1012.293144208038,0.11184210526315785
257,1012.293144208038,0.11842105263157898
258,1015.090622537431,0.125
259,1015.090622537431,0.13157894736842102
260,1015.090622537431,0.11842105263157898
261,1017.8881008668241,0.15131578947368418
262,1017.8881008668241,0.13157894736842102
263,1017.8881008668241,0.13815789473684215
264,1017.8881008668241,0.14473684210526316
265,1020.6855791962175,0.15131578947368418
266,1020.6855791962175,0.16447368421052633
267,1020.6855791962175,0.1578947368421053
268,1023.4830575256105,0.16447368421052633
269,1023.4830575256105,0.17105263157894735
270,1023.4830575256105,0.17763157894736847
271,1026.280535855004,0.1842105263157895
272,1026.280535855004,0.17763157894736847
273,1029.078014184397,0.19736842105263153
274,1029.078014184397,0.1842105263157895
275,1029.078014184397,0.1907894736842105
276,1031.8754925137905,0.19736842105263153
277,1034.6729708431835,0.19736842105263153
278,1037.470449172577,0.19736842105263153
279,1040.26792750197,0.19736842105263153
280,1043.0654058313635,0.19736842105263153
281,1045.8628841607565,0.19736842105263153
282,1048.6603624901495,0.19736842105263153
283,1051.457840819543,0.19736842105263153
284,1054.255319148936,0.19736842105263153
285,1057.0527974783295,0.1907894736842105
286,1057.0527974783295,0.19736842105263153
287,1059.8502758077225,0.1842105263157895
288,1059.8502758077225,0.1907894736842105
289,1062.647754137116,0.1842105263157895
290,1065.445232466509,0.17763157894736847
291,1065.445232466509,0.1842105263157895
292,1068.2427107959024,0.17763157894736847
293,1071.0401891252955,0.17763157894736847
294,1071.0401891252955,0.17105263157894735
295,1073.837667454689,0.16447368421052633
296,1073.837667454689,0.17105263157894735
297,1076.635145784082,0.16447368421052633
298,1079.432624113475,0.1578947368421053
299,1079.432624113475,0.16447368421052633
300,1082.2301024428684,0.1578947368421053
301,1082.2301024428684,0.15131578947368418
302,1085.0275807722614,0.14473684210526316
303,1085.0275807722614,0.15131578947368418
304,1087.825059101655,0.14473684210526316
305,1090.622537431048,0.14473684210526316
306,1090.622537431048,0.13815789473684215
307,1090.622537431048,0.13157894736842102
308,1093.4200157604414,0.13157894736842102
309,1096.2174940898344,0.13157894736842102
310,1096.2174940898344,0.125
311,1099.014972419228,0.125
312,1101.812450748621,0.11842105263157898
313,1101.812450748621,0.125
314,1104.6099290780144,0.11842105263157898
315,1107.4074074074074,0.11842105263157898
316,1110.2048857368004,0.11184210526315785
317,1110.2048857368004,0.11842105263157898
318,1113.0023640661939,0.11184210526315785
319,1115.799842395587,0.11184210526315785
320,1115.799842395587,0.10526315789473684
321,1118.5973207249804,0.10526315789473684
322,1121.3947990543734,0.09868421052631582
323,1121.3947990543734,0.10526315789473684
324,1124.1922773837669,0.09868421052631582
325,1126.9897557131599,0.09868421052631582
326,1129.7872340425533,0.09210526315789469
327,1129.7872340425533,0.09868421052631582
328,1132.5847123719464,0.09210526315789469
329,1135.3821907013398,0.09210526315789469
330,1138.1796690307328,0.08552631578947367
331,1138.1796690307328,0.09210526315789469
332,1140.9771473601263,0.08552631578947367
333,1143.7746256895193,0.07894736842105265
334,1143.7746256895193,0.08552631578947367
335,1146.5721040189123,0.07894736842105265
336,1149.3695823483058,0.07894736842105265
337,1152.1670606776988,0.07894736842105265
338,1154.9645390070923,0.07894736842105265
339,1154.9645390070923,0.07236842105263153
340,1157.7620173364853,0.07236842105263153
341,1160.5594956658788,0.07236842105263153
342,1163.3569739952718,0.07236842105263153
343,1166.1544523246653,0.06578947368421051
344,1166.1544523246653,0.07236842105263153
345,1168.9519306540583,0.06578947368421051
346,1171.7494089834518,0.06578947368421051
347,1174.5468873128448,0.06578947368421051
348,1177.3443656422378,0.06578947368421051
349,1177.3443656422378,0.05921052631578949
350,1180.1418439716313,0.05921052631578949
351,1182.9393223010243,0.05921052631578949
352,1185.7368006304177,0.052631578947368474
353,1185.7368006304177,0.05921052631578949
354,1188.5342789598108,0.052631578947368474
355,1191.3317572892042,0.052631578947368474
356,1194.1292356185972,0.052631578947368474
357,1196.9267139479907,0.052631578947368474
358,1199.7241922773837,0.052631578947368474
359,1202.5216706067772,0.052631578947368474
360,1205.3191489361702,0.052631578947368474
361,1208.1166272655632,0.052631578947368474
362,1210.9141055949567,0.046052631578947345
363,1210.9141055949567,0.052631578947368474
364,1213.7115839243497,0.046052631578947345
365,1216.5090622537432,0.046052631578947345
366,1219.3065405831362,0.046052631578947345
367,1222.1040189125297,0.046052631578947345
368,1224.9014972419227,0.046052631578947345
369,1227.6989755713162,0.046052631578947345
370,1230.4964539007092,0.046052631578947345
371,1233.2939322301027,0.046052631578947345
372,1236.0914105594957,0.046052631578947345
373,1238.8888888888887,0.046052631578947345
374,1241.6863672182822,0.046052631578947345
375,1244.4838455476752,0.046052631578947345
376,1247.2813238770686,0.046052631578947345
377,1250.0788022064617,0.046052631578947345
378,1252.8762805358551,0.052631578947368474
379,1252.8762805358551,0.046052631578947345
380,1255.6737588652481,0.052631578947368474
381,1258.4712371946416,0.052631578947368474
382,1261.2687155240346,0.052631578947368474
383,1264.066193853428,0.052631578947368474
384,1264.066193853428,0.046052631578947345
385,1266.8636721828211,0.046052631578947345
386,1269.6611505122141,0.052631578947368474
387,1269.6611505122141,0.046052631578947345
388,1272.4586288416076,0.052631578947368474
389,1275.2561071710006,0.052631578947368474
390,1278.053585500394,0.052631578947368474
391,1280.851063829787,0.052631578947368474
392,1283.6485421591806,0.052631578947368474
393,1286.4460204885736,0.052631578947368474
394,1289.243498817967,0.05921052631578949
395,1289.243498817967,0.052631578947368474
396,1292.04097714736,0.05921052631578949
397,1294.8384554767536,0.05921052631578949
398,1297.6359338061466,0.05921052631578949
399,1300.4334121355396,0.05921052631578949
400,1303.230890464933,0.05921052631578949
401,1306.028368794326,0.05921052631578949
402,1308.8258471237195,0.05921052631578949
403,1308.8258471237195,0.052631578947368474
404,1311.6233254531126,0.052631578947368474
405,1314.420803782506,0.052631578947368474
406,1317.218282111899,0.052631578947368474
407,1320.0157604412925,0.052631578947368474
408,1322.8132387706855,0.052631578947368474
409,1325.610717100079,0.052631578947368474
410,1328.408195429472,0.052631578947368474
411,1331.205673758865,0.052631578947368474
412,1331.205673758865,0.05921052631578949
413,1334.0031520882585,0.05921052631578949
414,1336.8006304176515,0.05921052631578949
415,1339.598108747045,0.05921052631578949
416,1342.395587076438,0.05921052631578949
417,1345.1930654058315,0.05921052631578949
418,1345.1930654058315,0.06578947368421051
419,1347.9905437352245,0.06578947368421051
420,1350.788022064618,0.06578947368421051
421,1353.585500394011,0.07236842105263153
422,1353.585500394011,0.06578947368421051
423,1356.3829787234044,0.07236842105263153
424,1356.3829787234044,0.07894736842105265
425,1359.1804570527975,0.08552631578947367
426,1359.1804570527975,0.09210526315789469
427,1359.1804570527975,0.09868421052631582
428,1359.1804570527975,0.07894736842105265
429,1361.9779353821905,0.09868421052631582
430,1361.9779353821905,0.10526315789473684
431,1364.775413711584,0.11184210526315785
432,1364.775413711584,0.10526315789473684
433,1364.775413711584,0.11842105263157898
434,1367.572892040977,0.125
435,1367.572892040977,0.13157894736842102
436,1367.572892040977,0.13815789473684215
437,1367.572892040977,0.11842105263157898
438,1370.3703703703704,0.13815789473684215
439,1370.3703703703704,0.1842105263157895
440,1370.3703703703704,0.17763157894736847
441,1370.3703703703704,0.1578947368421053
442,1370.3703703703704,0.15131578947368418
443,1370.3703703703704,0.14473684210526316
444,1370.3703703703704,0.17105263157894735
445,1370.3703703703704,0.1907894736842105
446,1370.3703703703704,0.16447368421052633
447,1373.1678486997635,0.1907894736842105
448,1375.965327029157,0.17105263157894735
449,1375.965327029157,0.13157894736842102
450,1375.965327029157,0.15131578947368418
451,1375.965327029157,0.16447368421052633
452,1375.965327029157,0.13815789473684215
453,1375.965327029157,0.1578947368421053
454,1375.965327029157,0.17763157894736847
455,1375.965327029157,0.14473684210526316
456,1375.965327029157,0.1907894736842105
457,1375.965327029157,0.1842105263157895
458,1378.76280535855,0.125
459,1378.76280535855,0.11842105263157898
460,1378.76280535855,0.13157894736842102
461,1378.76280535855,0.11184210526315785
462,1381.5602836879434,0.10526315789473684
