,wavenumbers,absorbance
0,452.797478329393,0.019736842105263164
1,455.5949566587865,0.019736842105263164
2,458.3924349881795,0.019736842105263164
3,461.189913317573,0.019736842105263164
4,463.987391646966,0.019736842105263164
5,466.78486997635946,0.02631578947368418
6,466.78486997635946,0.019736842105263164
7,469.5823483057525,0.02631578947368418
8,472.37982663514595,0.02631578947368418
9,472.37982663514595,0.019736842105263164
10,475.17730496453896,0.019736842105263164
11,477.97478329393243,0.019736842105263164
12,480.77226162332545,0.019736842105263164
13,483.56973995271846,0.019736842105263164
14,486.36721828211193,0.019736842105263164
15,489.16469661150495,0.019736842105263164
16,491.9621749408984,0.019736842105263164
17,494.75965327029144,0.019736842105263164
18,497.5571315996849,0.019736842105263164
19,500.3546099290779,0.019736842105263164
20,503.1520882584714,0.019736842105263164
21,505.9495665878644,0.019736842105263164
22,508.7470449172579,0.019736842105263164
23,511.5445232466509,0.019736842105263164
24,514.3420015760439,0.019736842105263164
25,517.1394799054374,0.019736842105263164
26,519.9369582348304,0.019736842105263164
27,522.7344365642239,0.019736842105263164
28,525.5319148936169,0.019736842105263164
29,528.3293932230104,0.019736842105263164
30,531.1268715524034,0.019736842105263164
31,533.9243498817968,0.019736842105263164
32,536.7218282111899,0.019736842105263164
33,539.5193065405833,0.013157894736842146
34,539.5193065405833,0.019736842105263164
35,542.3167848699763,0.019736842105263164
36,542.3167848699763,0.013157894736842146
37,545.1142631993694,0.019736842105263164
38,547.9117415287628,0.019736842105263164
39,550.7092198581558,0.019736842105263164
40,553.5066981875493,0.019736842105263164
41,556.3041765169423,0.019736842105263164
42,559.1016548463358,0.019736842105263164
43,561.8991331757288,0.019736842105263164
44,564.6966115051223,0.019736842105263164
45,567.4940898345153,0.019736842105263164
46,570.2915681639088,0.019736842105263164
47,573.0890464933018,0.019736842105263164
48,575.8865248226948,0.019736842105263164
49,578.6840031520883,0.019736842105263164
50,581.4814814814813,0.019736842105263164
51,584.2789598108748,0.019736842105263164
52,587.0764381402678,0.019736842105263164
53,589.8739164696613,0.019736842105263164
54,592.6713947990543,0.019736842105263164
55,595.4688731284477,0.019736842105263164
56,598.2663514578408,0.019736842105263164
57,601.0638297872342,0.019736842105263164
58,603.8613081166272,0.019736842105263164
59,606.6587864460207,0.019736842105263164
60,609.4562647754137,0.019736842105263164
61,612.2537431048067,0.019736842105263164
62,615.0512214342002,0.019736842105263164
63,617.8486997635932,0.019736842105263164
64,620.6461780929867,0.019736842105263164
65,620.6461780929867,0.03289473684210531
66,620.6461780929867,0.02631578947368418
67,623.4436564223797,0.03289473684210531
68,626.2411347517732,0.03289473684210531
69,626.2411347517732,0.02631578947368418
70,629.0386130811662,0.02631578947368418
71,629.0386130811662,0.019736842105263164
72,631.8360914105597,0.019736842105263164
73,634.6335697399527,0.019736842105263164
74,637.4310480693462,0.019736842105263164
75,640.2285263987392,0.019736842105263164
76,643.0260047281322,0.019736842105263164
77,645.8234830575257,0.019736842105263164
78,648.6209613869187,0.019736842105263164
79,651.4184397163122,0.019736842105263164
80,654.2159180457052,0.019736842105263164
81,657.0133963750986,0.019736842105263164
82,659.8108747044917,0.019736842105263164
83,662.6083530338851,0.019736842105263164
84,665.4058313632781,0.019736842105263164
85,668.2033096926716,0.019736842105263164
86,671.0007880220646,0.019736842105263164
87,673.7982663514576,0.019736842105263164
88,676.5957446808511,0.019736842105263164
89,679.3932230102441,0.019736842105263164
90,682.1907013396376,0.02631578947368418
91,682.1907013396376,0.019736842105263164
92,684.9881796690306,0.02631578947368418
93,687.7856579984241,0.02631578947368418
94,687.7856579984241,0.03289473684210531
95,690.5831363278171,0.03289473684210531
96,693.3806146572106,0.03289473684210531
97,693.3806146572106,0.046052631578947345
98,693.3806146572106,0.03947368421052633
99,696.1780929866036,0.046052631578947345
100,696.1780929866036,0.052631578947368474
101,698.9755713159971,0.052631578947368474
102,698.9755713159971,0.05921052631578949
103,701.7730496453901,0.052631578947368474
104,701.7730496453901,0.05921052631578949
105,704.5705279747831,0.052631578947368474
106,707.3680063041766,0.052631578947368474
107,710.1654846335696,0.052631578947368474
108,710.1654846335696,0.05921052631578949
109,712.962962962963,0.07236842105263153
110,712.962962962963,0.09210526315789469
111,712.962962962963,0.08552631578947367
112,712.962962962963,0.05921052631578949
113,712.962962962963,0.07894736842105265
114,712.962962962963,0.06578947368421051
115,715.7604412923561,0.09868421052631582
116,715.7604412923561,0.09210526315789469
117,715.7604412923561,0.10526315789473684
118,718.5579196217495,0.10526315789473684
119,718.5579196217495,0.09868421052631582
120,721.3553979511425,0.09210526315789469
121,721.3553979511425,0.09868421052631582
122,724.152876280536,0.09210526315789469
123,724.152876280536,0.08552631578947367
124,724.152876280536,0.07894736842105265
125,726.950354609929,0.07236842105263153
126,726.950354609929,0.07894736842105265
127,729.7478329393225,0.06578947368421051
128,729.7478329393225,0.07236842105263153
129,732.5453112687155,0.06578947368421051
130,735.3427895981085,0.06578947368421051
131,738.140267927502,0.06578947368421051
132,738.140267927502,0.05921052631578949
133,740.937746256895,0.05921052631578949
134,740.937746256895,0.052631578947368474
135,743.7352245862885,0.046052631578947345
136,743.7352245862885,0.052631578947368474
137,746.5327029156815,0.046052631578947345
138,749.330181245075,0.046052631578947345
139,749.330181245075,0.03947368421052633
140,752.127659574468,0.03947368421052633
141,754.9251379038615,0.03947368421052633
142,757.7226162332545,0.03947368421052633
143,760.520094562648,0.03947368421052633
144,763.317572892041,0.03947368421052633
145,766.115051221434,0.03947368421052633
146,768.9125295508275,0.03947368421052633
147,771.7100078802205,0.03947368421052633
148,774.507486209614,0.03947368421052633
149,777.304964539007,0.03947368421052633
150,780.1024428684004,0.03947368421052633
151,780.1024428684004,0.03289473684210531
152,782.8999211977934,0.03947368421052633
153,782.8999211977934,0.03289473684210531
154,785.6973995271869,0.03947368421052633
155,788.4948778565799,0.03947368421052633
156,791.2923561859734,0.03947368421052633
157,794.0898345153664,0.03947368421052633
158,794.0898345153664,0.046052631578947345
159,796.8873128447594,0.046052631578947345
160,799.6847911741529,0.046052631578947345
161,802.4822695035459,0.046052631578947345
162,805.2797478329394,0.046052631578947345
163,808.0772261623324,0.046052631578947345
164,810.8747044917259,0.046052631578947345
165,813.6721828211189,0.046052631578947345
166,813.6721828211189,0.03947368421052633
167,816.4696611505124,0.03947368421052633
168,819.2671394799054,0.03947368421052633
169,822.0646178092989,0.03289473684210531
170,822.0646178092989,0.03947368421052633
171,824.8620961386919,0.03289473684210531
172,827.6595744680849,0.03289473684210531
173,830.4570527974784,0.03289473684210531
174,833.2545311268714,0.03289473684210531
175,836.0520094562648,0.03289473684210531
176,838.8494877856579,0.03289473684210531
177,841.6469661150513,0.03289473684210531
178,844.4444444444443,0.03289473684210531
179,847.2419227738378,0.03289473684210531
180,850.0394011032308,0.03289473684210531
181,852.8368794326243,0.03289473684210531
182,855.6343577620173,0.03289473684210531
183,858.4318360914103,0.03289473684210531
184,861.2293144208038,0.03289473684210531
185,864.0267927501968,0.03289473684210531
186,866.8242710795903,0.03289473684210531
187,869.6217494089833,0.03289473684210531
188,872.4192277383768,0.03289473684210531
189,875.2167060677698,0.03289473684210531
190,878.0141843971633,0.03289473684210531
191,880.8116627265563,0.03289473684210531
192,883.6091410559497,0.03289473684210531
193,883.6091410559497,0.03947368421052633
194,886.4066193853428,0.03947368421052633
195,889.2040977147362,0.03947368421052633
196,892.0015760441293,0.03289473684210531
197,892.0015760441293,0.03947368421052633
198,894.7990543735223,0.03289473684210531
199,897.5965327029157,0.03289473684210531
200,900.3940110323088,0.03289473684210531
201,903.1914893617022,0.03289473684210531
202,905.9889676910952,0.03289473684210531
203,908.7864460204887,0.03289473684210531
204,911.5839243498817,0.03289473684210531
205,911.5839243498817,0.03947368421052633
206,914.3814026792752,0.03947368421052633
207,917.1788810086682,0.03947368421052633
208,917.1788810086682,0.03289473684210531
209,919.9763593380617,0.03289473684210531
210,922.7738376674547,0.03947368421052633
211,922.7738376674547,0.03289473684210531
212,925.5713159968477,0.03947368421052633
213,928.3687943262412,0.03947368421052633
214,931.1662726556342,0.03947368421052633
215,933.9637509850277,0.03947368421052633
216,936.7612293144207,0.046052631578947345
217,936.7612293144207,0.03947368421052633
218,939.5587076438142,0.046052631578947345
219,942.3561859732072,0.046052631578947345
220,945.1536643026006,0.03947368421052633
221,945.1536643026006,0.046052631578947345
222,947.9511426319937,0.03947368421052633
223,950.7486209613871,0.03947368421052633
224,953.5460992907801,0.03947368421052633
225,956.3435776201732,0.03947368421052633
226,959.1410559495666,0.03947368421052633
227,961.9385342789597,0.03947368421052633
228,964.7360126083531,0.03947368421052633
229,967.5334909377461,0.03947368421052633
230,970.3309692671396,0.03947368421052633
231,973.1284475965326,0.03947368421052633
232,975.9259259259261,0.03947368421052633
233,978.7234042553191,0.03947368421052633
234,981.5208825847126,0.03947368421052633
235,984.3183609141056,0.03947368421052633
236,987.1158392434986,0.03947368421052633
237,989.9133175728921,0.03947368421052633
238,992.7107959022851,0.03947368421052633
239,995.5082742316786,0.03947368421052633
240,998.3057525610716,0.03947368421052633
241,1001.103230890465,0.03947368421052633
242,1001.103230890465,0.046052631578947345
243,1003.9007092198581,0.046052631578947345
244,1006.6981875492515,0.046052631578947345
245,1009.4956658786446,0.046052631578947345
246,1009.4956658786446,0.052631578947368474
247,1012.293144208038,0.052631578947368474
248,1015.090622537431,0.052631578947368474
249,1017.8881008668241,0.052631578947368474
250,1020.6855791962175,0.052631578947368474
251,1023.4830575256105,0.052631578947368474
252,1026.280535855004,0.052631578947368474
253,1029.078014184397,0.052631578947368474
254,1031.8754925137905,0.052631578947368474
255,1034.6729708431835,0.052631578947368474
256,1037.470449172577,0.052631578947368474
257,1040.26792750197,0.052631578947368474
258,1043.0654058313635,0.052631578947368474
259,1045.8628841607565,0.052631578947368474
260,1048.6603624901495,0.052631578947368474
261,1051.457840819543,0.052631578947368474
262,1054.255319148936,0.052631578947368474
263,1057.0527974783295,0.052631578947368474
264,1059.8502758077225,0.052631578947368474
265,1062.647754137116,0.052631578947368474
266,1065.445232466509,0.052631578947368474
267,1068.2427107959024,0.052631578947368474
268,1071.0401891252955,0.052631578947368474
269,1073.837667454689,0.052631578947368474
270,1076.635145784082,0.052631578947368474
271,1079.432624113475,0.052631578947368474
272,1082.2301024428684,0.052631578947368474
273,1085.0275807722614,0.052631578947368474
274,1087.825059101655,0.052631578947368474
275,1090.622537431048,0.052631578947368474
276,1093.4200157604414,0.052631578947368474
277,1096.2174940898344,0.052631578947368474
278,1099.014972419228,0.052631578947368474
279,1101.812450748621,0.052631578947368474
280,1104.6099290780144,0.052631578947368474
281,1107.4074074074074,0.046052631578947345
282,1107.4074074074074,0.052631578947368474
283,1110.2048857368004,0.046052631578947345
284,1113.0023640661939,0.046052631578947345
285,1115.799842395587,0.052631578947368474
286,1115.799842395587,0.046052631578947345
287,1118.5973207249804,0.052631578947368474
288,1121.3947990543734,0.052631578947368474
289,1121.3947990543734,0.046052631578947345
290,1124.1922773837669,0.046052631578947345
291,1126.9897557131599,0.046052631578947345
292,1129.7872340425533,0.046052631578947345
293,1132.5847123719464,0.046052631578947345
294,1135.3821907013398,0.046052631578947345
295,1138.1796690307328,0.046052631578947345
296,1140.9771473601263,0.046052631578947345
297,1143.7746256895193,0.046052631578947345
298,1146.5721040189123,0.052631578947368474
299,1146.5721040189123,0.046052631578947345
300,1149.3695823483058,0.052631578947368474
301,1152.1670606776988,0.052631578947368474
302,1154.9645390070923,0.052631578947368474
303,1154.9645390070923,0.046052631578947345
304,1157.7620173364853,0.046052631578947345
305,1160.5594956658788,0.046052631578947345
306,1163.3569739952718,0.052631578947368474
307,1163.3569739952718,0.046052631578947345
308,1166.1544523246653,0.046052631578947345
309,1166.1544523246653,0.052631578947368474
310,1168.9519306540583,0.046052631578947345
311,1171.7494089834518,0.046052631578947345
312,1171.7494089834518,0.03947368421052633
313,1174.5468873128448,0.03947368421052633
314,1177.3443656422378,0.03947368421052633
315,1180.1418439716313,0.03947368421052633
316,1182.9393223010243,0.03947368421052633
317,1185.7368006304177,0.03947368421052633
318,1188.5342789598108,0.03947368421052633
319,1191.3317572892042,0.03947368421052633
320,1194.1292356185972,0.03947368421052633
321,1196.9267139479907,0.03947368421052633
322,1199.7241922773837,0.03947368421052633
323,1202.5216706067772,0.03947368421052633
324,1205.3191489361702,0.046052631578947345
325,1205.3191489361702,0.03947368421052633
326,1208.1166272655632,0.046052631578947345
327,1208.1166272655632,0.03947368421052633
328,1210.9141055949567,0.03947368421052633
329,1213.7115839243497,0.03947368421052633
330,1216.5090622537432,0.046052631578947345
331,1216.5090622537432,0.03947368421052633
332,1219.3065405831362,0.046052631578947345
333,1222.1040189125297,0.046052631578947345
334,1224.9014972419227,0.046052631578947345
335,1227.6989755713162,0.046052631578947345
336,1230.4964539007092,0.046052631578947345
337,1233.2939322301027,0.046052631578947345
338,1233.2939322301027,0.052631578947368474
339,1236.0914105594957,0.052631578947368474
340,1238.8888888888887,0.05921052631578949
341,1238.8888888888887,0.052631578947368474
342,1241.6863672182822,0.06578947368421051
343,1241.6863672182822,0.05921052631578949
344,1241.6863672182822,0.07236842105263153
345,1244.4838455476752,0.07894736842105265
346,1244.4838455476752,0.07236842105263153
347,1244.4838455476752,0.08552631578947367
348,1244.4838455476752,0.09210526315789469
349,1247.2813238770686,0.07236842105263153
350,1247.2813238770686,0.07894736842105265
351,1247.2813238770686,0.06578947368421051
352,1247.2813238770686,0.09210526315789469
353,1247.2813238770686,0.08552631578947367
354,1250.0788022064617,0.06578947368421051
355,1252.8762805358551,0.07236842105263153
356,1252.8762805358551,0.06578947368421051
357,1255.6737588652481,0.07894736842105265
358,1255.6737588652481,0.07236842105263153
359,1258.4712371946416,0.07236842105263153
360,1258.4712371946416,0.07894736842105265
361,1261.2687155240346,0.07236842105263153
362,1261.2687155240346,0.06578947368421051
363,1264.066193853428,0.06578947368421051
364,1266.8636721828211,0.06578947368421051
365,1269.6611505122141,0.06578947368421051
366,1272.4586288416076,0.06578947368421051
367,1272.4586288416076,0.05921052631578949
368,1275.2561071710006,0.05921052631578949
369,1278.053585500394,0.05921052631578949
370,1278.053585500394,0.06578947368421051
371,1280.851063829787,0.06578947368421051
372,1283.6485421591806,0.06578947368421051
373,1286.4460204885736,0.06578947368421051
374,1289.243498817967,0.06578947368421051
375,1292.04097714736,0.06578947368421051
376,1294.8384554767536,0.06578947368421051
377,1294.8384554767536,0.07236842105263153
378,1297.6359338061466,0.07236842105263153
379,1300.4334121355396,0.07236842105263153
380,1303.230890464933,0.07236842105263153
381,1306.028368794326,0.07236842105263153
382,1308.8258471237195,0.07236842105263153
383,1311.6233254531126,0.06578947368421051
384,1311.6233254531126,0.07236842105263153
385,1314.420803782506,0.06578947368421051
386,1317.218282111899,0.06578947368421051
387,1320.0157604412925,0.06578947368421051
388,1322.8132387706855,0.06578947368421051
389,1325.610717100079,0.06578947368421051
390,1325.610717100079,0.07236842105263153
391,1328.408195429472,0.07236842105263153
392,1331.205673758865,0.07894736842105265
393,1331.205673758865,0.07236842105263153
394,1334.0031520882585,0.08552631578947367
395,1334.0031520882585,0.07894736842105265
396,1336.8006304176515,0.08552631578947367
397,1339.598108747045,0.09210526315789469
398,1339.598108747045,0.08552631578947367
399,1342.395587076438,0.09210526315789469
400,1345.1930654058315,0.09210526315789469
401,1347.9905437352245,0.09210526315789469
402,1347.9905437352245,0.09868421052631582
403,1350.788022064618,0.09868421052631582
404,1353.585500394011,0.09868421052631582
405,1353.585500394011,0.10526315789473684
406,1356.3829787234044,0.11184210526315785
407,1356.3829787234044,0.10526315789473684
408,1359.1804570527975,0.13815789473684215
409,1359.1804570527975,0.11842105263157898
410,1359.1804570527975,0.14473684210526316
411,1359.1804570527975,0.13157894736842102
412,1359.1804570527975,0.125
413,1359.1804570527975,0.11184210526315785
414,1359.1804570527975,0.15131578947368418
415,1361.9779353821905,0.15131578947368418
416,1361.9779353821905,0.1578947368421053
417,1364.775413711584,0.17105263157894735
418,1364.775413711584,0.1578947368421053
419,1364.775413711584,0.16447368421052633
420,1367.572892040977,0.1907894736842105
421,1367.572892040977,0.1842105263157895
422,1367.572892040977,0.17105263157894735
423,1367.572892040977,0.19736842105263153
424,1367.572892040977,0.17763157894736847
425,1370.3703703703704,0.23684210526315785
426,1370.3703703703704,0.20394736842105265
427,1370.3703703703704,0.19736842105263153
428,1370.3703703703704,0.22368421052631582
429,1370.3703703703704,0.23026315789473684
430,1370.3703703703704,0.24342105263157898
431,1370.3703703703704,0.2171052631578947
432,1370.3703703703704,0.26315789473684215
433,1370.3703703703704,0.25
434,1370.3703703703704,0.256578947368421
435,1370.3703703703704,0.26973684210526316
436,1370.3703703703704,0.21052631578947367
437,1373.1678486997635,0.26973684210526316
438,1375.965327029157,0.21052631578947367
439,1375.965327029157,0.23684210526315785
440,1375.965327029157,0.2171052631578947
441,1375.965327029157,0.256578947368421
442,1375.965327029157,0.22368421052631582
443,1375.965327029157,0.20394736842105265
444,1375.965327029157,0.19736842105263153
445,1375.965327029157,0.23026315789473684
446,1375.965327029157,0.26973684210526316
447,1375.965327029157,0.25
448,1375.965327029157,0.24342105263157898
449,1375.965327029157,0.26315789473684215
450,1378.76280535855,0.19736842105263153
451,1378.76280535855,0.1907894736842105
452,1378.76280535855,0.17105263157894735
453,1378.76280535855,0.1842105263157895
454,1378.76280535855,0.17763157894736847
455,1381.5602836879434,0.14473684210526316
456,1381.5602836879434,0.15131578947368418
457,1381.5602836879434,0.16447368421052633
458,1381.5602836879434,0.13815789473684215
459,1381.5602836879434,0.17105263157894735
