,wavenumbers,absorbance
0,452.797478329393,0.07894736842105265
1,455.5949566587865,0.07894736842105265
2,458.3924349881795,0.07894736842105265
3,461.189913317573,0.07894736842105265
4,463.987391646966,0.07894736842105265
5,466.78486997635946,0.07894736842105265
6,469.5823483057525,0.07894736842105265
7,472.37982663514595,0.07894736842105265
8,475.17730496453896,0.07894736842105265
9,477.97478329393243,0.07894736842105265
10,480.77226162332545,0.07894736842105265
11,483.56973995271846,0.07894736842105265
12,486.36721828211193,0.07894736842105265
13,489.16469661150495,0.07894736842105265
14,491.9621749408984,0.07894736842105265
15,494.75965327029144,0.07894736842105265
16,497.5571315996849,0.07894736842105265
17,497.5571315996849,0.09210526315789469
18,497.5571315996849,0.08552631578947367
19,500.3546099290779,0.09210526315789469
20,503.1520882584714,0.09210526315789469
21,503.1520882584714,0.09868421052631582
22,505.9495665878644,0.09868421052631582
23,508.7470449172579,0.09868421052631582
24,511.5445232466509,0.09868421052631582
25,511.5445232466509,0.10526315789473684
26,514.3420015760439,0.09868421052631582
27,514.3420015760439,0.10526315789473684
28,517.1394799054374,0.09210526315789469
29,517.1394799054374,0.09868421052631582
30,519.9369582348304,0.09210526315789469
31,519.9369582348304,0.08552631578947367
32,519.9369582348304,0.07894736842105265
33,522.7344365642239,0.07894736842105265
34,525.5319148936169,0.07236842105263153
35,525.5319148936169,0.07894736842105265
36,525.5319148936169,0.06578947368421051
37,528.3293932230104,0.06578947368421051
38,528.3293932230104,0.05921052631578949
39,531.1268715524034,0.05921052631578949
40,533.9243498817968,0.052631578947368474
41,533.9243498817968,0.05921052631578949
42,536.7218282111899,0.046052631578947345
43,536.7218282111899,0.052631578947368474
44,539.5193065405833,0.046052631578947345
45,539.5193065405833,0.03947368421052633
46,542.3167848699763,0.03947368421052633
47,545.1142631993694,0.03947368421052633
48,547.9117415287628,0.03947368421052633
49,550.7092198581558,0.03947368421052633
50,550.7092198581558,0.03289473684210531
51,553.5066981875493,0.03289473684210531
52,553.5066981875493,0.03947368421052633
53,556.3041765169423,0.03289473684210531
54,559.1016548463358,0.03289473684210531
55,559.1016548463358,0.02631578947368418
56,561.8991331757288,0.02631578947368418
57,564.6966115051223,0.02631578947368418
58,567.4940898345153,0.019736842105263164
59,567.4940898345153,0.02631578947368418
60,570.2915681639088,0.019736842105263164
61,573.0890464933018,0.019736842105263164
62,575.8865248226948,0.019736842105263164
63,578.6840031520883,0.019736842105263164
64,581.4814814814813,0.019736842105263164
65,584.2789598108748,0.019736842105263164
66,584.2789598108748,0.02631578947368418
67,587.0764381402678,0.02631578947368418
68,587.0764381402678,0.03289473684210531
69,589.8739164696613,0.03289473684210531
70,589.8739164696613,0.03947368421052633
71,592.6713947990543,0.03947368421052633
72,595.4688731284477,0.046052631578947345
73,595.4688731284477,0.03947368421052633
74,598.2663514578408,0.046052631578947345
75,601.0638297872342,0.046052631578947345
76,603.8613081166272,0.046052631578947345
77,603.8613081166272,0.03947368421052633
78,606.6587864460207,0.03947368421052633
79,609.4562647754137,0.03947368421052633
80,612.2537431048067,0.046052631578947345
81,612.2537431048067,0.03947368421052633
82,615.0512214342002,0.03947368421052633
83,615.0512214342002,0.046052631578947345
84,617.8486997635932,0.03289473684210531
85,617.8486997635932,0.03947368421052633
86,620.6461780929867,0.03289473684210531
87,620.6461780929867,0.03947368421052633
88,623.4436564223797,0.03947368421052633
89,626.2411347517732,0.03947368421052633
90,626.2411347517732,0.046052631578947345
91,629.0386130811662,0.046052631578947345
92,631.8360914105597,0.046052631578947345
93,631.8360914105597,0.052631578947368474
94,634.6335697399527,0.05921052631578949
95,634.6335697399527,0.052631578947368474
96,637.4310480693462,0.05921052631578949
97,637.4310480693462,0.06578947368421051
98,640.2285263987392,0.06578947368421051
99,643.0260047281322,0.06578947368421051
100,643.0260047281322,0.07236842105263153
101,645.8234830575257,0.07236842105263153
102,648.6209613869187,0.07236842105263153
103,651.4184397163122,0.07236842105263153
104,651.4184397163122,0.06578947368421051
105,654.2159180457052,0.05921052631578949
106,654.2159180457052,0.06578947368421051
107,657.0133963750986,0.052631578947368474
108,657.0133963750986,0.05921052631578949
109,659.8108747044917,0.052631578947368474
110,662.6083530338851,0.05921052631578949
111,662.6083530338851,0.052631578947368474
112,665.4058313632781,0.05921052631578949
113,668.2033096926716,0.05921052631578949
114,671.0007880220646,0.05921052631578949
115,671.0007880220646,0.06578947368421051
116,673.7982663514576,0.06578947368421051
117,676.5957446808511,0.06578947368421051
118,676.5957446808511,0.07236842105263153
119,679.3932230102441,0.07236842105263153
120,682.1907013396376,0.06578947368421051
121,682.1907013396376,0.07236842105263153
122,684.9881796690306,0.06578947368421051
123,687.7856579984241,0.06578947368421051
124,687.7856579984241,0.05921052631578949
125,687.7856579984241,0.052631578947368474
126,690.5831363278171,0.052631578947368474
127,693.3806146572106,0.052631578947368474
128,696.1780929866036,0.052631578947368474
129,698.9755713159971,0.052631578947368474
130,698.9755713159971,0.06578947368421051
131,698.9755713159971,0.05921052631578949
132,698.9755713159971,0.07236842105263153
133,701.7730496453901,0.09868421052631582
134,701.7730496453901,0.08552631578947367
135,701.7730496453901,0.09210526315789469
136,701.7730496453901,0.07894736842105265
137,701.7730496453901,0.07236842105263153
138,704.5705279747831,0.11184210526315785
139,704.5705279747831,0.125
140,704.5705279747831,0.10526315789473684
141,704.5705279747831,0.15131578947368418
142,704.5705279747831,0.14473684210526316
143,704.5705279747831,0.13157894736842102
144,704.5705279747831,0.09868421052631582
145,704.5705279747831,0.11842105263157898
146,704.5705279747831,0.13815789473684215
147,707.3680063041766,0.1907894736842105
148,707.3680063041766,0.19736842105263153
149,707.3680063041766,0.26973684210526316
150,707.3680063041766,0.20394736842105265
151,707.3680063041766,0.21052631578947367
152,707.3680063041766,0.256578947368421
153,707.3680063041766,0.2171052631578947
154,707.3680063041766,0.25
155,707.3680063041766,0.22368421052631582
156,707.3680063041766,0.24342105263157898
157,707.3680063041766,0.23026315789473684
158,707.3680063041766,0.26315789473684215
159,707.3680063041766,0.2763157894736842
160,707.3680063041766,0.1578947368421053
161,707.3680063041766,0.17763157894736847
162,707.3680063041766,0.2828947368421053
163,707.3680063041766,0.17105263157894735
164,707.3680063041766,0.3026315789473685
165,707.3680063041766,0.2894736842105263
166,707.3680063041766,0.16447368421052633
167,707.3680063041766,0.29605263157894735
168,707.3680063041766,0.15131578947368418
169,707.3680063041766,0.1842105263157895
170,707.3680063041766,0.23684210526315785
171,710.1654846335696,0.2763157894736842
172,710.1654846335696,0.26973684210526316
173,710.1654846335696,0.2828947368421053
174,710.1654846335696,0.2894736842105263
175,710.1654846335696,0.29605263157894735
176,710.1654846335696,0.3026315789473685
177,712.962962962963,0.22368421052631582
178,712.962962962963,0.1578947368421053
179,712.962962962963,0.14473684210526316
180,712.962962962963,0.16447368421052633
181,712.962962962963,0.13815789473684215
182,712.962962962963,0.17105263157894735
183,712.962962962963,0.13157894736842102
184,712.962962962963,0.17763157894736847
185,712.962962962963,0.1842105263157895
186,712.962962962963,0.23026315789473684
187,712.962962962963,0.26973684210526316
188,712.962962962963,0.19736842105263153
189,712.962962962963,0.26315789473684215
190,712.962962962963,0.20394736842105265
191,712.962962962963,0.256578947368421
192,712.962962962963,0.15131578947368418
193,712.962962962963,0.25
194,712.962962962963,0.2171052631578947
195,712.962962962963,0.24342105263157898
196,712.962962962963,0.1907894736842105
197,712.962962962963,0.21052631578947367
198,712.962962962963,0.23684210526315785
199,715.7604412923561,0.13157894736842102
200,715.7604412923561,0.10526315789473684
201,715.7604412923561,0.125
202,715.7604412923561,0.11184210526315785
203,715.7604412923561,0.11842105263157898
204,718.5579196217495,0.10526315789473684
205,718.5579196217495,0.09210526315789469
206,718.5579196217495,0.07894736842105265
207,718.5579196217495,0.09868421052631582
208,718.5579196217495,0.07236842105263153
209,718.5579196217495,0.08552631578947367
210,718.5579196217495,0.06578947368421051
211,721.3553979511425,0.06578947368421051
212,724.152876280536,0.06578947368421051
213,724.152876280536,0.07236842105263153
214,726.950354609929,0.06578947368421051
215,729.7478329393225,0.06578947368421051
216,729.7478329393225,0.05921052631578949
217,729.7478329393225,0.052631578947368474
218,732.5453112687155,0.03947368421052633
219,732.5453112687155,0.046052631578947345
220,732.5453112687155,0.052631578947368474
221,735.3427895981085,0.03947368421052633
222,738.140267927502,0.03289473684210531
223,738.140267927502,0.03947368421052633
224,740.937746256895,0.03289473684210531
225,743.7352245862885,0.03289473684210531
226,746.5327029156815,0.03289473684210531
227,749.330181245075,0.03289473684210531
228,752.127659574468,0.03289473684210531
229,754.9251379038615,0.03289473684210531
230,757.7226162332545,0.03289473684210531
231,760.520094562648,0.03289473684210531
232,763.317572892041,0.03289473684210531
233,763.317572892041,0.03947368421052633
234,766.115051221434,0.03947368421052633
235,768.9125295508275,0.03947368421052633
236,771.7100078802205,0.03947368421052633
237,774.507486209614,0.03947368421052633
238,774.507486209614,0.03289473684210531
239,777.304964539007,0.03289473684210531
240,780.1024428684004,0.03289473684210531
241,780.1024428684004,0.02631578947368418
242,782.8999211977934,0.02631578947368418
243,785.6973995271869,0.02631578947368418
244,788.4948778565799,0.02631578947368418
245,791.2923561859734,0.02631578947368418
246,794.0898345153664,0.03289473684210531
247,794.0898345153664,0.02631578947368418
248,796.8873128447594,0.03289473684210531
249,799.6847911741529,0.03289473684210531
250,802.4822695035459,0.03289473684210531
251,805.2797478329394,0.02631578947368418
252,805.2797478329394,0.03289473684210531
253,808.0772261623324,0.02631578947368418
254,810.8747044917259,0.02631578947368418
255,813.6721828211189,0.02631578947368418
256,813.6721828211189,0.019736842105263164
257,816.4696611505124,0.019736842105263164
258,819.2671394799054,0.019736842105263164
259,822.0646178092989,0.019736842105263164
260,824.8620961386919,0.019736842105263164
261,827.6595744680849,0.019736842105263164
262,827.6595744680849,0.02631578947368418
263,830.4570527974784,0.02631578947368418
264,833.2545311268714,0.03289473684210531
265,833.2545311268714,0.02631578947368418
266,836.0520094562648,0.03289473684210531
267,836.0520094562648,0.03947368421052633
268,838.8494877856579,0.052631578947368474
269,838.8494877856579,0.03947368421052633
270,838.8494877856579,0.046052631578947345
271,841.6469661150513,0.08552631578947367
272,841.6469661150513,0.05921052631578949
273,841.6469661150513,0.06578947368421051
274,841.6469661150513,0.07236842105263153
275,841.6469661150513,0.052631578947368474
276,841.6469661150513,0.07894736842105265
277,844.4444444444443,0.08552631578947367
278,844.4444444444443,0.07894736842105265
279,847.2419227738378,0.07894736842105265
280,847.2419227738378,0.07236842105263153
281,850.0394011032308,0.08552631578947367
282,850.0394011032308,0.07236842105263153
283,850.0394011032308,0.07894736842105265
284,852.8368794326243,0.09210526315789469
285,852.8368794326243,0.08552631578947367
286,855.6343577620173,0.11842105263157898
287,855.6343577620173,0.10526315789473684
288,855.6343577620173,0.09868421052631582
289,855.6343577620173,0.125
290,855.6343577620173,0.11184210526315785
291,855.6343577620173,0.09210526315789469
292,858.4318360914103,0.125
293,858.4318360914103,0.13157894736842102
294,858.4318360914103,0.14473684210526316
295,858.4318360914103,0.15131578947368418
296,858.4318360914103,0.13815789473684215
297,861.2293144208038,0.20394736842105265
298,861.2293144208038,0.21052631578947367
299,861.2293144208038,0.17763157894736847
300,861.2293144208038,0.2171052631578947
301,861.2293144208038,0.19736842105263153
302,861.2293144208038,0.1578947368421053
303,861.2293144208038,0.15131578947368418
304,861.2293144208038,0.16447368421052633
305,861.2293144208038,0.22368421052631582
306,861.2293144208038,0.23026315789473684
307,861.2293144208038,0.1907894736842105
308,861.2293144208038,0.1842105263157895
309,861.2293144208038,0.17105263157894735
310,864.0267927501968,0.26973684210526316
311,864.0267927501968,0.2763157894736842
312,864.0267927501968,0.23684210526315785
313,864.0267927501968,0.25
314,864.0267927501968,0.256578947368421
315,864.0267927501968,0.26315789473684215
316,864.0267927501968,0.24342105263157898
317,864.0267927501968,0.23026315789473684
318,864.0267927501968,0.2894736842105263
319,864.0267927501968,0.29605263157894735
320,864.0267927501968,0.2828947368421053
321,866.8242710795903,0.375
322,866.8242710795903,0.36184210526315785
323,866.8242710795903,0.368421052631579
324,866.8242710795903,0.38815789473684215
325,866.8242710795903,0.3486842105263158
326,866.8242710795903,0.35526315789473684
327,866.8242710795903,0.381578947368421
328,866.8242710795903,0.4276315789473685
329,866.8242710795903,0.3421052631578947
330,866.8242710795903,0.4605263157894737
331,866.8242710795903,0.45394736842105265
332,866.8242710795903,0.4473684210526315
333,866.8242710795903,0.4407894736842105
334,866.8242710795903,0.39473684210526316
335,866.8242710795903,0.29605263157894735
336,866.8242710795903,0.3026315789473685
337,866.8242710795903,0.42105263157894735
338,866.8242710795903,0.4342105263157895
339,866.8242710795903,0.4078947368421053
340,866.8242710795903,0.3355263157894737
341,866.8242710795903,0.4144736842105263
342,866.8242710795903,0.32894736842105265
343,866.8242710795903,0.4013157894736842
344,866.8242710795903,0.3157894736842105
345,866.8242710795903,0.3092105263157895
346,866.8242710795903,0.3223684210526315
347,869.6217494089833,0.513157894736842
348,869.6217494089833,0.506578947368421
349,869.6217494089833,0.5197368421052632
350,869.6217494089833,0.4605263157894737
351,869.6217494089833,0.4671052631578947
352,869.6217494089833,0.4736842105263158
353,869.6217494089833,0.48026315789473684
354,869.6217494089833,0.48684210526315785
355,869.6217494089833,0.493421052631579
356,869.6217494089833,0.5
357,872.4192277383768,0.5460526315789473
358,872.4192277383768,0.5328947368421053
359,872.4192277383768,0.5197368421052632
360,872.4192277383768,0.5394736842105263
361,872.4192277383768,0.5263157894736843
362,875.2167060677698,0.506578947368421
363,875.2167060677698,0.5
364,875.2167060677698,0.5394736842105263
365,875.2167060677698,0.5263157894736843
366,875.2167060677698,0.5328947368421053
367,875.2167060677698,0.493421052631579
368,875.2167060677698,0.5197368421052632
369,875.2167060677698,0.513157894736842
370,875.2167060677698,0.5460526315789473
371,878.0141843971633,0.4736842105263158
372,878.0141843971633,0.4671052631578947
373,878.0141843971633,0.48026315789473684
374,878.0141843971633,0.4605263157894737
375,878.0141843971633,0.45394736842105265
376,878.0141843971633,0.4473684210526315
377,878.0141843971633,0.493421052631579
378,878.0141843971633,0.48684210526315785
379,880.8116627265563,0.3157894736842105
380,880.8116627265563,0.368421052631579
381,880.8116627265563,0.4144736842105263
382,880.8116627265563,0.36184210526315785
383,880.8116627265563,0.42105263157894735
384,880.8116627265563,0.4473684210526315
385,880.8116627265563,0.4407894736842105
386,880.8116627265563,0.4342105263157895
387,880.8116627265563,0.4078947368421053
388,880.8116627265563,0.3223684210526315
389,880.8116627265563,0.4276315789473685
390,880.8116627265563,0.375
391,880.8116627265563,0.4013157894736842
392,880.8116627265563,0.35526315789473684
393,880.8116627265563,0.32894736842105265
394,880.8116627265563,0.3486842105263158
395,880.8116627265563,0.3421052631578947
396,880.8116627265563,0.39473684210526316
397,880.8116627265563,0.3355263157894737
398,880.8116627265563,0.38815789473684215
399,880.8116627265563,0.381578947368421
400,883.6091410559497,0.3026315789473685
401,883.6091410559497,0.2763157894736842
402,883.6091410559497,0.3092105263157895
403,883.6091410559497,0.2894736842105263
404,883.6091410559497,0.29605263157894735
405,883.6091410559497,0.256578947368421
406,883.6091410559497,0.2828947368421053
407,883.6091410559497,0.3157894736842105
408,883.6091410559497,0.25
409,883.6091410559497,0.24342105263157898
410,883.6091410559497,0.26315789473684215
411,883.6091410559497,0.26973684210526316
412,886.4066193853428,0.1907894736842105
413,886.4066193853428,0.17763157894736847
414,886.4066193853428,0.1842105263157895
415,886.4066193853428,0.23026315789473684
416,886.4066193853428,0.21052631578947367
417,886.4066193853428,0.17105263157894735
418,886.4066193853428,0.2171052631578947
419,886.4066193853428,0.16447368421052633
420,886.4066193853428,0.22368421052631582
421,886.4066193853428,0.24342105263157898
422,886.4066193853428,0.20394736842105265
423,886.4066193853428,0.23684210526315785
424,886.4066193853428,0.19736842105263153
425,889.2040977147362,0.14473684210526316
426,889.2040977147362,0.15131578947368418
427,889.2040977147362,0.1578947368421053
428,889.2040977147362,0.16447368421052633
429,892.0015760441293,0.11184210526315785
430,892.0015760441293,0.13815789473684215
431,892.0015760441293,0.14473684210526316
432,892.0015760441293,0.13157894736842102
433,892.0015760441293,0.125
434,892.0015760441293,0.11842105263157898
435,894.7990543735223,0.11184210526315785
436,894.7990543735223,0.10526315789473684
437,897.5965327029157,0.09868421052631582
438,897.5965327029157,0.10526315789473684
439,897.5965327029157,0.09210526315789469
440,900.3940110323088,0.08552631578947367
441,900.3940110323088,0.09210526315789469
442,903.1914893617022,0.07894736842105265
443,903.1914893617022,0.08552631578947367
444,905.9889676910952,0.07894736842105265
445,905.9889676910952,0.07236842105263153
446,908.7864460204887,0.07236842105263153
447,911.5839243498817,0.07236842105263153
448,914.3814026792752,0.07236842105263153
449,917.1788810086682,0.07236842105263153
450,919.9763593380617,0.07236842105263153
451,922.7738376674547,0.07236842105263153
452,925.5713159968477,0.07236842105263153
453,928.3687943262412,0.07236842105263153
454,931.1662726556342,0.07236842105263153
455,933.9637509850277,0.07236842105263153
456,936.7612293144207,0.07236842105263153
457,939.5587076438142,0.07236842105263153
458,942.3561859732072,0.07236842105263153
459,942.3561859732072,0.06578947368421051
460,945.1536643026006,0.06578947368421051
461,947.9511426319937,0.06578947368421051
462,950.7486209613871,0.06578947368421051
463,953.5460992907801,0.07236842105263153
464,953.5460992907801,0.06578947368421051
465,956.3435776201732,0.07236842105263153
466,959.1410559495666,0.07236842105263153
467,961.9385342789597,0.07894736842105265
468,961.9385342789597,0.07236842105263153
469,964.7360126083531,0.07894736842105265
470,967.5334909377461,0.07894736842105265
471,967.5334909377461,0.08552631578947367
472,970.3309692671396,0.08552631578947367
