,wavenumbers,absorbance
0,452.797478329393,0.046052631578947345
1,452.797478329393,0.052631578947368474
2,455.5949566587865,0.052631578947368474
3,458.3924349881795,0.05921052631578949
4,458.3924349881795,0.052631578947368474
5,461.189913317573,0.05921052631578949
6,463.987391646966,0.05921052631578949
7,466.78486997635946,0.05921052631578949
8,469.5823483057525,0.05921052631578949
9,469.5823483057525,0.06578947368421051
10,472.37982663514595,0.06578947368421051
11,475.17730496453896,0.06578947368421051
12,477.97478329393243,0.06578947368421051
13,480.77226162332545,0.06578947368421051
14,480.77226162332545,0.07236842105263153
15,483.56973995271846,0.07236842105263153
16,486.36721828211193,0.07236842105263153
17,489.16469661150495,0.07236842105263153
18,491.9621749408984,0.07236842105263153
19,494.75965327029144,0.07236842105263153
20,497.5571315996849,0.07236842105263153
21,500.3546099290779,0.07236842105263153
22,503.1520882584714,0.07894736842105265
23,503.1520882584714,0.07236842105263153
24,505.9495665878644,0.07894736842105265
25,508.7470449172579,0.07894736842105265
26,511.5445232466509,0.07894736842105265
27,514.3420015760439,0.07894736842105265
28,517.1394799054374,0.07894736842105265
29,519.9369582348304,0.07894736842105265
30,522.7344365642239,0.07894736842105265
31,525.5319148936169,0.07894736842105265
32,528.3293932230104,0.07894736842105265
33,531.1268715524034,0.07894736842105265
34,533.9243498817968,0.07894736842105265
35,536.7218282111899,0.08552631578947367
36,536.7218282111899,0.07894736842105265
37,539.5193065405833,0.08552631578947367
38,542.3167848699763,0.08552631578947367
39,545.1142631993694,0.08552631578947367
40,547.9117415287628,0.08552631578947367
41,550.7092198581558,0.08552631578947367
42,553.5066981875493,0.08552631578947367
43,556.3041765169423,0.08552631578947367
44,559.1016548463358,0.08552631578947367
45,561.8991331757288,0.08552631578947367
46,564.6966115051223,0.09210526315789469
47,564.6966115051223,0.08552631578947367
48,567.4940898345153,0.09210526315789469
49,570.2915681639088,0.09210526315789469
50,573.0890464933018,0.09210526315789469
51,575.8865248226948,0.09210526315789469
52,578.6840031520883,0.09210526315789469
53,581.4814814814813,0.09210526315789469
54,581.4814814814813,0.09868421052631582
55,584.2789598108748,0.09868421052631582
56,587.0764381402678,0.09868421052631582
57,589.8739164696613,0.09868421052631582
58,589.8739164696613,0.10526315789473684
59,592.6713947990543,0.10526315789473684
60,595.4688731284477,0.11184210526315785
61,595.4688731284477,0.11842105263157898
62,595.4688731284477,0.10526315789473684
63,598.2663514578408,0.11842105263157898
64,601.0638297872342,0.125
65,601.0638297872342,0.11842105263157898
66,603.8613081166272,0.125
67,606.6587864460207,0.125
68,606.6587864460207,0.11842105263157898
69,606.6587864460207,0.11184210526315785
70,609.4562647754137,0.11184210526315785
71,612.2537431048067,0.11184210526315785
72,612.2537431048067,0.10526315789473684
73,615.0512214342002,0.10526315789473684
74,617.8486997635932,0.10526315789473684
75,617.8486997635932,0.11184210526315785
76,620.6461780929867,0.11184210526315785
77,620.6461780929867,0.10526315789473684
78,623.4436564223797,0.10526315789473684
79,626.2411347517732,0.10526315789473684
80,629.0386130811662,0.10526315789473684
81,631.8360914105597,0.10526315789473684
82,634.6335697399527,0.10526315789473684
83,637.4310480693462,0.10526315789473684
84,640.2285263987392,0.10526315789473684
85,643.0260047281322,0.09868421052631582
86,643.0260047281322,0.10526315789473684
87,645.8234830575257,0.09868421052631582
88,648.6209613869187,0.09868421052631582
89,651.4184397163122,0.09868421052631582
90,654.2159180457052,0.09868421052631582
91,657.0133963750986,0.09868421052631582
92,659.8108747044917,0.09868421052631582
93,662.6083530338851,0.09868421052631582
94,665.4058313632781,0.09868421052631582
95,668.2033096926716,0.09868421052631582
96,671.0007880220646,0.09868421052631582
97,673.7982663514576,0.09868421052631582
98,676.5957446808511,0.09868421052631582
99,679.3932230102441,0.09868421052631582
100,682.1907013396376,0.09868421052631582
101,684.9881796690306,0.09868421052631582
102,687.7856579984241,0.09868421052631582
103,690.5831363278171,0.09868421052631582
104,693.3806146572106,0.09868421052631582
105,693.3806146572106,0.10526315789473684
106,696.1780929866036,0.10526315789473684
107,698.9755713159971,0.10526315789473684
108,701.7730496453901,0.10526315789473684
109,704.5705279747831,0.10526315789473684
110,707.3680063041766,0.10526315789473684
111,710.1654846335696,0.10526315789473684
112,710.1654846335696,0.11184210526315785
113,712.962962962963,0.11184210526315785
114,715.7604412923561,0.11842105263157898
115,715.7604412923561,0.11184210526315785
116,718.5579196217495,0.125
117,718.5579196217495,0.11842105263157898
118,721.3553979511425,0.125
119,724.152876280536,0.125
120,726.950354609929,0.125
121,729.7478329393225,0.125
122,729.7478329393225,0.11842105263157898
123,732.5453112687155,0.11842105263157898
124,735.3427895981085,0.11842105263157898
125,738.140267927502,0.11842105263157898
126,740.937746256895,0.11842105263157898
127,743.7352245862885,0.11842105263157898
128,746.5327029156815,0.11842105263157898
129,749.330181245075,0.11842105263157898
130,752.127659574468,0.11842105263157898
131,754.9251379038615,0.125
132,754.9251379038615,0.11842105263157898
133,757.7226162332545,0.125
134,760.520094562648,0.125
135,763.317572892041,0.125
136,766.115051221434,0.125
137,768.9125295508275,0.125
138,771.7100078802205,0.125
139,774.507486209614,0.125
140,777.304964539007,0.125
141,780.1024428684004,0.125
142,782.8999211977934,0.125
143,785.6973995271869,0.125
144,785.6973995271869,0.11842105263157898
145,788.4948778565799,0.11842105263157898
146,791.2923561859734,0.11842105263157898
147,791.2923561859734,0.125
148,794.0898345153664,0.125
149,796.8873128447594,0.125
150,799.6847911741529,0.125
151,802.4822695035459,0.125
152,805.2797478329394,0.125
153,808.0772261623324,0.125
154,810.8747044917259,0.125
155,813.6721828211189,0.125
156,816.4696611505124,0.125
157,819.2671394799054,0.125
158,822.0646178092989,0.125
159,824.8620961386919,0.125
160,827.6595744680849,0.125
161,830.4570527974784,0.125
162,833.2545311268714,0.125
163,836.0520094562648,0.125
164,838.8494877856579,0.125
165,841.6469661150513,0.125
166,844.4444444444443,0.125
167,847.2419227738378,0.125
168,850.0394011032308,0.125
169,852.8368794326243,0.125
170,855.6343577620173,0.13157894736842102
171,855.6343577620173,0.125
172,858.4318360914103,0.13157894736842102
173,861.2293144208038,0.13157894736842102
174,864.0267927501968,0.13157894736842102
175,866.8242710795903,0.13157894736842102
176,869.6217494089833,0.13157894736842102
177,872.4192277383768,0.13157894736842102
178,875.2167060677698,0.13157894736842102
179,878.0141843971633,0.13157894736842102
180,880.8116627265563,0.13157894736842102
181,883.6091410559497,0.13157894736842102
182,883.6091410559497,0.13815789473684215
183,886.4066193853428,0.13815789473684215
184,889.2040977147362,0.13815789473684215
185,892.0015760441293,0.13815789473684215
186,894.7990543735223,0.13815789473684215
187,894.7990543735223,0.14473684210526316
188,897.5965327029157,0.14473684210526316
189,900.3940110323088,0.14473684210526316
190,903.1914893617022,0.14473684210526316
191,905.9889676910952,0.14473684210526316
192,908.7864460204887,0.14473684210526316
193,911.5839243498817,0.15131578947368418
194,911.5839243498817,0.14473684210526316
195,914.3814026792752,0.15131578947368418
196,917.1788810086682,0.15131578947368418
197,919.9763593380617,0.15131578947368418
198,919.9763593380617,0.1578947368421053
199,922.7738376674547,0.16447368421052633
200,922.7738376674547,0.1578947368421053
201,925.5713159968477,0.16447368421052633
202,928.3687943262412,0.17105263157894735
203,928.3687943262412,0.16447368421052633
204,931.1662726556342,0.17763157894736847
205,931.1662726556342,0.17105263157894735
206,933.9637509850277,0.17763157894736847
207,936.7612293144207,0.17763157894736847
208,939.5587076438142,0.17763157894736847
209,939.5587076438142,0.1842105263157895
210,942.3561859732072,0.17763157894736847
211,942.3561859732072,0.1842105263157895
212,945.1536643026006,0.17763157894736847
213,947.9511426319937,0.17763157894736847
214,950.7486209613871,0.17763157894736847
215,953.5460992907801,0.17105263157894735
216,953.5460992907801,0.17763157894736847
217,956.3435776201732,0.17105263157894735
218,959.1410559495666,0.17105263157894735
219,961.9385342789597,0.17105263157894735
220,961.9385342789597,0.16447368421052633
221,964.7360126083531,0.16447368421052633
222,967.5334909377461,0.16447368421052633
223,970.3309692671396,0.16447368421052633
224,973.1284475965326,0.16447368421052633
225,975.9259259259261,0.16447368421052633
226,978.7234042553191,0.16447368421052633
227,981.5208825847126,0.16447368421052633
228,984.3183609141056,0.16447368421052633
229,987.1158392434986,0.16447368421052633
230,987.1158392434986,0.17105263157894735
231,989.9133175728921,0.17105263157894735
232,992.7107959022851,0.17763157894736847
233,992.7107959022851,0.17105263157894735
234,995.5082742316786,0.17763157894736847
235,995.5082742316786,0.1842105263157895
236,998.3057525610716,0.1907894736842105
237,998.3057525610716,0.1842105263157895
238,1001.103230890465,0.20394736842105265
239,1001.103230890465,0.19736842105263153
240,1001.103230890465,0.1907894736842105
241,1003.9007092198581,0.21052631578947367
242,1003.9007092198581,0.20394736842105265
243,1003.9007092198581,0.2171052631578947
244,1006.6981875492515,0.23026315789473684
245,1006.6981875492515,0.2171052631578947
246,1006.6981875492515,0.22368421052631582
247,1009.4956658786446,0.25
248,1009.4956658786446,0.23026315789473684
249,1009.4956658786446,0.24342105263157898
250,1009.4956658786446,0.256578947368421
251,1009.4956658786446,0.26315789473684215
252,1009.4956658786446,0.23684210526315785
253,1012.293144208038,0.2763157894736842
254,1012.293144208038,0.26315789473684215
255,1012.293144208038,0.2828947368421053
256,1012.293144208038,0.26973684210526316
257,1015.090622537431,0.2828947368421053
258,1015.090622537431,0.2894736842105263
259,1017.8881008668241,0.29605263157894735
260,1017.8881008668241,0.2894736842105263
261,1020.6855791962175,0.29605263157894735
262,1020.6855791962175,0.2894736842105263
263,1023.4830575256105,0.2763157894736842
264,1023.4830575256105,0.26973684210526316
265,1023.4830575256105,0.2894736842105263
266,1023.4830575256105,0.2828947368421053
267,1026.280535855004,0.26973684210526316
268,1026.280535855004,0.26315789473684215
269,1026.280535855004,0.256578947368421
270,1029.078014184397,0.23684210526315785
271,1029.078014184397,0.256578947368421
272,1029.078014184397,0.25
273,1029.078014184397,0.24342105263157898
274,1031.8754925137905,0.23684210526315785
275,1031.8754925137905,0.23026315789473684
276,1034.6729708431835,0.23026315789473684
277,1037.470449172577,0.23026315789473684
278,1037.470449172577,0.22368421052631582
279,1040.26792750197,0.22368421052631582
280,1043.0654058313635,0.22368421052631582
281,1045.8628841607565,0.22368421052631582
282,1045.8628841607565,0.2171052631578947
283,1048.6603624901495,0.2171052631578947
284,1048.6603624901495,0.21052631578947367
285,1051.457840819543,0.20394736842105265
286,1051.457840819543,0.21052631578947367
287,1054.255319148936,0.20394736842105265
288,1057.0527974783295,0.20394736842105265
289,1059.8502758077225,0.20394736842105265
290,1062.647754137116,0.20394736842105265
291,1065.445232466509,0.20394736842105265
292,1068.2427107959024,0.20394736842105265
293,1071.0401891252955,0.20394736842105265
294,1073.837667454689,0.21052631578947367
295,1073.837667454689,0.20394736842105265
296,1076.635145784082,0.21052631578947367
297,1079.432624113475,0.21052631578947367
298,1082.2301024428684,0.21052631578947367
299,1085.0275807722614,0.21052631578947367
300,1087.825059101655,0.21052631578947367
301,1090.622537431048,0.21052631578947367
302,1093.4200157604414,0.21052631578947367
303,1096.2174940898344,0.21052631578947367
304,1099.014972419228,0.21052631578947367
305,1101.812450748621,0.21052631578947367
306,1101.812450748621,0.2171052631578947
307,1104.6099290780144,0.2171052631578947
308,1107.4074074074074,0.22368421052631582
309,1107.4074074074074,0.2171052631578947
310,1110.2048857368004,0.23026315789473684
311,1110.2048857368004,0.22368421052631582
312,1113.0023640661939,0.23026315789473684
313,1115.799842395587,0.23026315789473684
314,1115.799842395587,0.23684210526315785
315,1118.5973207249804,0.23684210526315785
316,1121.3947990543734,0.23684210526315785
317,1124.1922773837669,0.23684210526315785
318,1126.9897557131599,0.23684210526315785
319,1129.7872340425533,0.23684210526315785
320,1129.7872340425533,0.24342105263157898
321,1132.5847123719464,0.24342105263157898
322,1135.3821907013398,0.24342105263157898
323,1138.1796690307328,0.24342105263157898
324,1140.9771473601263,0.24342105263157898
325,1140.9771473601263,0.25
326,1143.7746256895193,0.25
327,1143.7746256895193,0.256578947368421
328,1146.5721040189123,0.256578947368421
329,1146.5721040189123,0.26315789473684215
330,1146.5721040189123,0.26973684210526316
331,1146.5721040189123,0.2763157894736842
332,1149.3695823483058,0.2894736842105263
333,1149.3695823483058,0.2763157894736842
334,1149.3695823483058,0.2828947368421053
335,1152.1670606776988,0.3092105263157895
336,1152.1670606776988,0.29605263157894735
337,1152.1670606776988,0.3157894736842105
338,1152.1670606776988,0.2894736842105263
339,1152.1670606776988,0.3026315789473685
340,1154.9645390070923,0.3157894736842105
341,1154.9645390070923,0.3223684210526315
342,1157.7620173364853,0.32894736842105265
343,1157.7620173364853,0.3223684210526315
344,1160.5594956658788,0.32894736842105265
345,1160.5594956658788,0.3355263157894737
346,1160.5594956658788,0.3421052631578947
347,1163.3569739952718,0.3486842105263158
348,1163.3569739952718,0.3421052631578947
349,1166.1544523246653,0.3486842105263158
350,1166.1544523246653,0.3421052631578947
351,1168.9519306540583,0.3421052631578947
352,1168.9519306540583,0.3355263157894737
353,1171.7494089834518,0.32894736842105265
354,1171.7494089834518,0.3355263157894737
355,1171.7494089834518,0.3157894736842105
356,1171.7494089834518,0.3223684210526315
357,1174.5468873128448,0.3026315789473685
358,1174.5468873128448,0.3092105263157895
359,1174.5468873128448,0.3157894736842105
360,1177.3443656422378,0.2894736842105263
361,1177.3443656422378,0.2763157894736842
362,1177.3443656422378,0.2828947368421053
363,1177.3443656422378,0.3026315789473685
364,1177.3443656422378,0.29605263157894735
365,1180.1418439716313,0.26973684210526316
366,1180.1418439716313,0.2763157894736842
367,1182.9393223010243,0.256578947368421
368,1182.9393223010243,0.26315789473684215
369,1182.9393223010243,0.26973684210526316
370,1185.7368006304177,0.25
371,1185.7368006304177,0.256578947368421
372,1185.7368006304177,0.24342105263157898
373,1188.5342789598108,0.24342105263157898
374,1191.3317572892042,0.24342105263157898
375,1191.3317572892042,0.23684210526315785
376,1194.1292356185972,0.23684210526315785
377,1196.9267139479907,0.24342105263157898
378,1196.9267139479907,0.23684210526315785
379,1199.7241922773837,0.25
380,1199.7241922773837,0.24342105263157898
381,1202.5216706067772,0.256578947368421
382,1202.5216706067772,0.26315789473684215
383,1202.5216706067772,0.25
384,1205.3191489361702,0.26973684210526316
385,1205.3191489361702,0.26315789473684215
386,1208.1166272655632,0.2763157894736842
387,1208.1166272655632,0.2894736842105263
388,1208.1166272655632,0.26973684210526316
389,1208.1166272655632,0.29605263157894735
390,1208.1166272655632,0.2828947368421053
391,1210.9141055949567,0.3026315789473685
392,1210.9141055949567,0.3092105263157895
393,1210.9141055949567,0.29605263157894735
394,1213.7115839243497,0.3157894736842105
395,1213.7115839243497,0.3223684210526315
396,1213.7115839243497,0.32894736842105265
397,1213.7115839243497,0.3092105263157895
398,1216.5090622537432,0.381578947368421
399,1216.5090622537432,0.38815789473684215
400,1216.5090622537432,0.3486842105263158
401,1216.5090622537432,0.375
402,1216.5090622537432,0.3355263157894737
403,1216.5090622537432,0.35526315789473684
404,1216.5090622537432,0.32894736842105265
405,1216.5090622537432,0.368421052631579
406,1216.5090622537432,0.3421052631578947
407,1216.5090622537432,0.36184210526315785
408,1219.3065405831362,0.39473684210526316
409,1219.3065405831362,0.4144736842105263
410,1219.3065405831362,0.4276315789473685
411,1219.3065405831362,0.4078947368421053
412,1219.3065405831362,0.4013157894736842
413,1219.3065405831362,0.42105263157894735
414,1219.3065405831362,0.38815789473684215
415,1222.1040189125297,0.4671052631578947
416,1222.1040189125297,0.4736842105263158
417,1222.1040189125297,0.4276315789473685
418,1222.1040189125297,0.4342105263157895
419,1222.1040189125297,0.45394736842105265
420,1222.1040189125297,0.48026315789473684
421,1222.1040189125297,0.4605263157894737
422,1222.1040189125297,0.513157894736842
423,1222.1040189125297,0.4473684210526315
424,1222.1040189125297,0.506578947368421
425,1222.1040189125297,0.493421052631579
426,1222.1040189125297,0.4407894736842105
427,1222.1040189125297,0.5197368421052632
428,1222.1040189125297,0.5
429,1222.1040189125297,0.48684210526315785
430,1224.9014972419227,0.5197368421052632
431,1224.9014972419227,0.5263157894736843
432,1224.9014972419227,0.5394736842105263
433,1224.9014972419227,0.5328947368421053
434,1224.9014972419227,0.5526315789473684
435,1224.9014972419227,0.5592105263157895
436,1224.9014972419227,0.5657894736842105
437,1224.9014972419227,0.5460526315789473
438,1227.6989755713162,0.6447368421052632
439,1227.6989755713162,0.5789473684210527
440,1227.6989755713162,0.5723684210526316
441,1227.6989755713162,0.5855263157894737
442,1227.6989755713162,0.5657894736842105
443,1227.6989755713162,0.611842105263158
444,1227.6989755713162,0.638157894736842
445,1227.6989755713162,0.5986842105263157
446,1227.6989755713162,0.6513157894736843
447,1227.6989755713162,0.6052631578947368
448,1227.6989755713162,0.618421052631579
449,1227.6989755713162,0.631578947368421
450,1227.6989755713162,0.6578947368421053
451,1227.6989755713162,0.625
452,1227.6989755713162,0.5921052631578947
453,1230.4964539007092,0.6644736842105263
454,1230.4964539007092,0.6776315789473684
455,1230.4964539007092,0.6578947368421053
456,1230.4964539007092,0.6710526315789473
457,1230.4964539007092,0.6842105263157895
458,1233.2939322301027,0.6842105263157895
459,1233.2939322301027,0.7105263157894737
460,1233.2939322301027,0.6973684210526316
461,1233.2939322301027,0.6907894736842105
462,1233.2939322301027,0.7039473684210527
463,1236.0914105594957,0.7105263157894737
464,1238.8888888888887,0.6842105263157895
465,1238.8888888888887,0.7039473684210527
466,1238.8888888888887,0.6973684210526316
467,1238.8888888888887,0.6776315789473684
468,1238.8888888888887,0.6644736842105263
469,1238.8888888888887,0.6907894736842105
470,1238.8888888888887,0.6710526315789473
471,1238.8888888888887,0.7105263157894737
472,1241.6863672182822,0.6447368421052632
473,1241.6863672182822,0.6644736842105263
474,1241.6863672182822,0.6513157894736843
475,1241.6863672182822,0.638157894736842
476,1241.6863672182822,0.6578947368421053
477,1241.6863672182822,0.631578947368421
478,1244.4838455476752,0.631578947368421
479,1244.4838455476752,0.625
480,1244.4838455476752,0.618421052631579
481,1244.4838455476752,0.611842105263158
482,1244.4838455476752,0.6052631578947368
483,1244.4838455476752,0.5986842105263157
