,wavenumbers,absorbance
0,452.797478329393,0.019736842105263164
1,455.5949566587865,0.019736842105263164
2,458.3924349881795,0.019736842105263164
3,461.189913317573,0.019736842105263164
4,463.987391646966,0.019736842105263164
5,466.78486997635946,0.019736842105263164
6,469.5823483057525,0.019736842105263164
7,472.37982663514595,0.019736842105263164
8,475.17730496453896,0.019736842105263164
9,477.97478329393243,0.019736842105263164
10,480.77226162332545,0.019736842105263164
11,483.56973995271846,0.019736842105263164
12,483.56973995271846,0.02631578947368418
13,486.36721828211193,0.02631578947368418
14,489.16469661150495,0.02631578947368418
15,491.9621749408984,0.02631578947368418
16,494.75965327029144,0.02631578947368418
17,497.5571315996849,0.02631578947368418
18,500.3546099290779,0.02631578947368418
19,500.3546099290779,0.019736842105263164
20,503.1520882584714,0.019736842105263164
21,505.9495665878644,0.019736842105263164
22,508.7470449172579,0.019736842105263164
23,511.5445232466509,0.019736842105263164
24,514.3420015760439,0.019736842105263164
25,517.1394799054374,0.019736842105263164
26,519.9369582348304,0.019736842105263164
27,522.7344365642239,0.019736842105263164
28,525.5319148936169,0.019736842105263164
29,528.3293932230104,0.019736842105263164
30,531.1268715524034,0.019736842105263164
31,533.9243498817968,0.019736842105263164
32,536.7218282111899,0.019736842105263164
33,539.5193065405833,0.02631578947368418
34,539.5193065405833,0.019736842105263164
35,542.3167848699763,0.02631578947368418
36,545.1142631993694,0.02631578947368418
37,547.9117415287628,0.02631578947368418
38,550.7092198581558,0.02631578947368418
39,553.5066981875493,0.02631578947368418
40,553.5066981875493,0.019736842105263164
41,556.3041765169423,0.019736842105263164
42,559.1016548463358,0.019736842105263164
43,561.8991331757288,0.019736842105263164
44,564.6966115051223,0.019736842105263164
45,567.4940898345153,0.019736842105263164
46,570.2915681639088,0.019736842105263164
47,573.0890464933018,0.019736842105263164
48,575.8865248226948,0.019736842105263164
49,578.6840031520883,0.019736842105263164
50,581.4814814814813,0.019736842105263164
51,584.2789598108748,0.019736842105263164
52,587.0764381402678,0.019736842105263164
53,589.8739164696613,0.019736842105263164
54,592.6713947990543,0.019736842105263164
55,595.4688731284477,0.019736842105263164
56,598.2663514578408,0.019736842105263164
57,601.0638297872342,0.019736842105263164
58,603.8613081166272,0.019736842105263164
59,606.6587864460207,0.019736842105263164
60,609.4562647754137,0.019736842105263164
61,612.2537431048067,0.019736842105263164
62,615.0512214342002,0.019736842105263164
63,617.8486997635932,0.019736842105263164
64,620.6461780929867,0.019736842105263164
65,623.4436564223797,0.019736842105263164
66,626.2411347517732,0.019736842105263164
67,629.0386130811662,0.019736842105263164
68,631.8360914105597,0.019736842105263164
69,634.6335697399527,0.019736842105263164
70,637.4310480693462,0.019736842105263164
71,640.2285263987392,0.019736842105263164
72,643.0260047281322,0.019736842105263164
73,645.8234830575257,0.019736842105263164
74,648.6209613869187,0.02631578947368418
75,648.6209613869187,0.019736842105263164
76,651.4184397163122,0.03947368421052633
77,651.4184397163122,0.02631578947368418
78,651.4184397163122,0.03289473684210531
79,654.2159180457052,0.046052631578947345
80,654.2159180457052,0.03947368421052633
81,657.0133963750986,0.052631578947368474
82,657.0133963750986,0.046052631578947345
83,659.8108747044917,0.052631578947368474
84,662.6083530338851,0.052631578947368474
85,665.4058313632781,0.052631578947368474
86,668.2033096926716,0.052631578947368474
87,671.0007880220646,0.052631578947368474
88,673.7982663514576,0.052631578947368474
89,676.5957446808511,0.052631578947368474
90,676.5957446808511,0.05921052631578949
91,679.3932230102441,0.05921052631578949
92,679.3932230102441,0.06578947368421051
93,682.1907013396376,0.06578947368421051
94,682.1907013396376,0.07236842105263153
95,684.9881796690306,0.07236842105263153
96,687.7856579984241,0.07236842105263153
97,687.7856579984241,0.07894736842105265
98,690.5831363278171,0.07894736842105265
99,693.3806146572106,0.08552631578947367
100,693.3806146572106,0.07894736842105265
101,696.1780929866036,0.07894736842105265
102,696.1780929866036,0.08552631578947367
103,698.9755713159971,0.07236842105263153
104,698.9755713159971,0.07894736842105265
105,701.7730496453901,0.06578947368421051
106,704.5705279747831,0.06578947368421051
107,704.5705279747831,0.05921052631578949
108,707.3680063041766,0.052631578947368474
109,707.3680063041766,0.046052631578947345
110,707.3680063041766,0.05921052631578949
111,710.1654846335696,0.03947368421052633
112,710.1654846335696,0.046052631578947345
113,712.962962962963,0.03947368421052633
114,712.962962962963,0.03289473684210531
115,715.7604412923561,0.03289473684210531
116,718.5579196217495,0.03289473684210531
117,721.3553979511425,0.03289473684210531
118,724.152876280536,0.03289473684210531
119,726.950354609929,0.03289473684210531
120,729.7478329393225,0.03289473684210531
121,732.5453112687155,0.03289473684210531
122,735.3427895981085,0.03947368421052633
123,735.3427895981085,0.03289473684210531
124,738.140267927502,0.03947368421052633
125,740.937746256895,0.03947368421052633
126,743.7352245862885,0.03947368421052633
127,746.5327029156815,0.03947368421052633
128,749.330181245075,0.03947368421052633
129,749.330181245075,0.046052631578947345
130,752.127659574468,0.046052631578947345
131,754.9251379038615,0.046052631578947345
132,754.9251379038615,0.052631578947368474
133,757.7226162332545,0.052631578947368474
134,757.7226162332545,0.05921052631578949
135,760.520094562648,0.05921052631578949
136,763.317572892041,0.06578947368421051
137,763.317572892041,0.05921052631578949
138,763.317572892041,0.07236842105263153
139,766.115051221434,0.07894736842105265
140,766.115051221434,0.07236842105263153
141,768.9125295508275,0.09868421052631582
142,768.9125295508275,0.07894736842105265
143,768.9125295508275,0.08552631578947367
144,768.9125295508275,0.09210526315789469
145,771.7100078802205,0.10526315789473684
146,771.7100078802205,0.09868421052631582
147,771.7100078802205,0.11842105263157898
148,771.7100078802205,0.11184210526315785
149,774.507486209614,0.13157894736842102
150,774.507486209614,0.11842105263157898
151,774.507486209614,0.15131578947368418
152,774.507486209614,0.17105263157894735
153,774.507486209614,0.14473684210526316
154,774.507486209614,0.16447368421052633
155,774.507486209614,0.1578947368421053
156,774.507486209614,0.125
157,774.507486209614,0.13815789473684215
158,777.304964539007,0.20394736842105265
159,777.304964539007,0.17105263157894735
160,777.304964539007,0.19736842105263153
161,777.304964539007,0.1842105263157895
162,777.304964539007,0.1907894736842105
163,777.304964539007,0.17763157894736847
164,780.1024428684004,0.24342105263157898
165,780.1024428684004,0.25
166,780.1024428684004,0.23684210526315785
167,780.1024428684004,0.23026315789473684
168,780.1024428684004,0.26315789473684215
169,780.1024428684004,0.22368421052631582
170,780.1024428684004,0.20394736842105265
171,780.1024428684004,0.26973684210526316
172,780.1024428684004,0.2763157894736842
173,780.1024428684004,0.3026315789473685
174,780.1024428684004,0.2171052631578947
175,780.1024428684004,0.2828947368421053
176,780.1024428684004,0.256578947368421
177,780.1024428684004,0.2894736842105263
178,780.1024428684004,0.21052631578947367
179,780.1024428684004,0.29605263157894735
180,782.8999211977934,0.3486842105263158
181,782.8999211977934,0.3092105263157895
182,782.8999211977934,0.3157894736842105
183,782.8999211977934,0.36184210526315785
184,782.8999211977934,0.368421052631579
185,782.8999211977934,0.3421052631578947
186,782.8999211977934,0.3355263157894737
187,782.8999211977934,0.32894736842105265
188,782.8999211977934,0.3026315789473685
189,782.8999211977934,0.3223684210526315
190,782.8999211977934,0.35526315789473684
191,785.6973995271869,0.4473684210526315
192,785.6973995271869,0.368421052631579
193,785.6973995271869,0.4342105263157895
194,785.6973995271869,0.4144736842105263
195,785.6973995271869,0.375
196,785.6973995271869,0.42105263157894735
197,785.6973995271869,0.4078947368421053
198,785.6973995271869,0.4276315789473685
199,785.6973995271869,0.4013157894736842
200,785.6973995271869,0.38815789473684215
201,785.6973995271869,0.4407894736842105
202,785.6973995271869,0.39473684210526316
203,785.6973995271869,0.381578947368421
204,788.4948778565799,0.5657894736842105
205,788.4948778565799,0.5263157894736843
206,788.4948778565799,0.5789473684210527
207,788.4948778565799,0.5986842105263157
208,788.4948778565799,0.4473684210526315
209,788.4948778565799,0.493421052631579
210,788.4948778565799,0.6052631578947368
211,788.4948778565799,0.5723684210526316
212,788.4948778565799,0.45394736842105265
213,788.4948778565799,0.5592105263157895
214,788.4948778565799,0.638157894736842
215,788.4948778565799,0.4671052631578947
216,788.4948778565799,0.506578947368421
217,788.4948778565799,0.611842105263158
218,788.4948778565799,0.5526315789473684
219,788.4948778565799,0.4736842105263158
220,788.4948778565799,0.5394736842105263
221,788.4948778565799,0.631578947368421
222,788.4948778565799,0.5460526315789473
223,788.4948778565799,0.5921052631578947
224,788.4948778565799,0.618421052631579
225,788.4948778565799,0.5855263157894737
226,788.4948778565799,0.48684210526315785
227,788.4948778565799,0.5
228,788.4948778565799,0.625
229,788.4948778565799,0.4605263157894737
230,788.4948778565799,0.48026315789473684
231,788.4948778565799,0.5328947368421053
232,788.4948778565799,0.5197368421052632
233,788.4948778565799,0.513157894736842
234,791.2923561859734,0.6710526315789473
235,791.2923561859734,0.7236842105263157
236,791.2923561859734,0.638157894736842
237,791.2923561859734,0.6578947368421053
238,791.2923561859734,0.6907894736842105
239,791.2923561859734,0.6644736842105263
240,791.2923561859734,0.7171052631578947
241,791.2923561859734,0.6447368421052632
242,791.2923561859734,0.6973684210526316
243,791.2923561859734,0.6513157894736843
244,791.2923561859734,0.7039473684210527
245,791.2923561859734,0.6776315789473684
246,791.2923561859734,0.7105263157894737
247,791.2923561859734,0.6842105263157895
248,794.0898345153664,0.8552631578947368
249,794.0898345153664,0.875
250,794.0898345153664,0.75
251,794.0898345153664,0.868421052631579
252,794.0898345153664,0.743421052631579
253,794.0898345153664,0.8618421052631579
254,794.0898345153664,0.8223684210526316
255,794.0898345153664,0.7631578947368421
256,794.0898345153664,0.756578947368421
257,794.0898345153664,0.8421052631578947
258,794.0898345153664,0.736842105263158
259,794.0898345153664,0.8355263157894737
260,794.0898345153664,0.7697368421052632
261,794.0898345153664,0.8289473684210527
262,794.0898345153664,0.7763157894736842
263,794.0898345153664,0.8157894736842105
264,794.0898345153664,0.7828947368421053
265,794.0898345153664,0.8092105263157895
266,794.0898345153664,0.7894736842105263
267,794.0898345153664,0.8486842105263158
268,794.0898345153664,0.881578947368421
269,794.0898345153664,0.9078947368421053
270,794.0898345153664,0.8881578947368421
271,794.0898345153664,0.7302631578947368
272,794.0898345153664,0.9210526315789473
273,794.0898345153664,0.9144736842105263
274,794.0898345153664,0.7960526315789473
275,794.0898345153664,0.9013157894736842
276,794.0898345153664,0.7236842105263157
277,794.0898345153664,0.8947368421052632
278,794.0898345153664,0.8026315789473684
279,796.8873128447594,0.993421052631579
280,796.8873128447594,0.9868421052631579
281,796.8873128447594,0.9802631578947368
282,796.8873128447594,0.9736842105263158
283,796.8873128447594,0.9671052631578947
284,796.8873128447594,0.9605263157894737
285,796.8873128447594,0.9407894736842105
286,796.8873128447594,0.9342105263157895
287,796.8873128447594,0.9276315789473684
288,796.8873128447594,0.9210526315789473
289,796.8873128447594,0.9539473684210527
290,796.8873128447594,0.9473684210526316
291,799.6847911741529,0.9868421052631579
292,799.6847911741529,0.993421052631579
293,799.6847911741529,1.0
294,802.4822695035459,0.9473684210526316
295,802.4822695035459,0.9736842105263158
296,802.4822695035459,0.9671052631578947
297,802.4822695035459,0.8947368421052632
298,802.4822695035459,0.9868421052631579
299,802.4822695035459,0.9078947368421053
300,802.4822695035459,0.9144736842105263
301,802.4822695035459,0.9013157894736842
302,802.4822695035459,0.9210526315789473
303,802.4822695035459,0.9276315789473684
304,802.4822695035459,0.9342105263157895
305,802.4822695035459,0.9539473684210527
306,802.4822695035459,0.9407894736842105
307,802.4822695035459,0.993421052631579
308,802.4822695035459,0.9605263157894737
309,802.4822695035459,0.9802631578947368
310,805.2797478329394,0.8618421052631579
311,805.2797478329394,0.7960526315789473
312,805.2797478329394,0.8947368421052632
313,805.2797478329394,0.8881578947368421
314,805.2797478329394,0.881578947368421
315,805.2797478329394,0.868421052631579
316,805.2797478329394,0.7894736842105263
317,805.2797478329394,0.875
318,805.2797478329394,0.7763157894736842
319,805.2797478329394,0.8223684210526316
320,805.2797478329394,0.8092105263157895
321,805.2797478329394,0.7697368421052632
322,805.2797478329394,0.8552631578947368
323,805.2797478329394,0.8289473684210527
324,805.2797478329394,0.7631578947368421
325,805.2797478329394,0.8157894736842105
326,805.2797478329394,0.756578947368421
327,805.2797478329394,0.8355263157894737
328,805.2797478329394,0.7828947368421053
329,805.2797478329394,0.8486842105263158
330,805.2797478329394,0.8026315789473684
331,805.2797478329394,0.75
332,805.2797478329394,0.8421052631578947
333,808.0772261623324,0.7236842105263157
334,808.0772261623324,0.75
335,808.0772261623324,0.7302631578947368
336,808.0772261623324,0.7171052631578947
337,808.0772261623324,0.7105263157894737
338,808.0772261623324,0.736842105263158
339,808.0772261623324,0.6842105263157895
340,808.0772261623324,0.743421052631579
341,808.0772261623324,0.7039473684210527
342,808.0772261623324,0.6973684210526316
343,808.0772261623324,0.6907894736842105
344,810.8747044917259,0.6644736842105263
345,810.8747044917259,0.6776315789473684
346,810.8747044917259,0.6710526315789473
347,810.8747044917259,0.631578947368421
348,810.8747044917259,0.625
349,810.8747044917259,0.6578947368421053
350,810.8747044917259,0.6513157894736843
351,810.8747044917259,0.638157894736842
352,810.8747044917259,0.6447368421052632
353,810.8747044917259,0.6842105263157895
354,810.8747044917259,0.618421052631579
355,810.8747044917259,0.5855263157894737
356,810.8747044917259,0.5921052631578947
357,810.8747044917259,0.611842105263158
358,810.8747044917259,0.6052631578947368
359,810.8747044917259,0.5789473684210527
360,810.8747044917259,0.5986842105263157
361,813.6721828211189,0.5789473684210527
362,813.6721828211189,0.5723684210526316
363,813.6721828211189,0.5592105263157895
364,813.6721828211189,0.5394736842105263
365,813.6721828211189,0.5657894736842105
366,813.6721828211189,0.5526315789473684
367,813.6721828211189,0.5460526315789473
368,816.4696611505124,0.5263157894736843
369,816.4696611505124,0.506578947368421
370,816.4696611505124,0.5
371,816.4696611505124,0.5197368421052632
372,816.4696611505124,0.513157894736842
373,816.4696611505124,0.493421052631579
374,816.4696611505124,0.48684210526315785
375,816.4696611505124,0.5394736842105263
376,816.4696611505124,0.48026315789473684
377,816.4696611505124,0.5328947368421053
378,819.2671394799054,0.4013157894736842
379,819.2671394799054,0.38815789473684215
380,819.2671394799054,0.4078947368421053
381,819.2671394799054,0.375
382,819.2671394799054,0.368421052631579
383,819.2671394799054,0.4144736842105263
384,819.2671394799054,0.42105263157894735
385,819.2671394799054,0.4407894736842105
386,819.2671394799054,0.4342105263157895
387,819.2671394799054,0.4473684210526315
388,819.2671394799054,0.45394736842105265
389,819.2671394799054,0.4605263157894737
390,819.2671394799054,0.4671052631578947
391,819.2671394799054,0.4736842105263158
392,819.2671394799054,0.48026315789473684
393,819.2671394799054,0.4276315789473685
394,819.2671394799054,0.381578947368421
395,819.2671394799054,0.39473684210526316
396,822.0646178092989,0.368421052631579
397,822.0646178092989,0.36184210526315785
398,822.0646178092989,0.35526315789473684
399,822.0646178092989,0.3486842105263158
400,822.0646178092989,0.3421052631578947
401,822.0646178092989,0.3355263157894737
402,822.0646178092989,0.32894736842105265
403,822.0646178092989,0.3223684210526315
404,822.0646178092989,0.3157894736842105
405,822.0646178092989,0.3092105263157895
406,824.8620961386919,0.2894736842105263
407,824.8620961386919,0.26973684210526316
408,824.8620961386919,0.26315789473684215
409,824.8620961386919,0.22368421052631582
410,824.8620961386919,0.23026315789473684
411,824.8620961386919,0.2763157894736842
412,824.8620961386919,0.25
413,824.8620961386919,0.256578947368421
414,824.8620961386919,0.2171052631578947
415,824.8620961386919,0.3026315789473685
416,824.8620961386919,0.29605263157894735
417,824.8620961386919,0.23684210526315785
418,824.8620961386919,0.3092105263157895
419,824.8620961386919,0.2828947368421053
420,824.8620961386919,0.24342105263157898
421,827.6595744680849,0.2171052631578947
422,827.6595744680849,0.21052631578947367
423,827.6595744680849,0.20394736842105265
424,827.6595744680849,0.19736842105263153
425,827.6595744680849,0.1907894736842105
426,830.4570527974784,0.17105263157894735
427,830.4570527974784,0.17763157894736847
428,830.4570527974784,0.15131578947368418
429,830.4570527974784,0.1578947368421053
430,830.4570527974784,0.1842105263157895
431,830.4570527974784,0.16447368421052633
432,830.4570527974784,0.1907894736842105
433,833.2545311268714,0.14473684210526316
434,833.2545311268714,0.15131578947368418
435,833.2545311268714,0.13815789473684215
436,836.0520094562648,0.13815789473684215
437,836.0520094562648,0.13157894736842102
438,836.0520094562648,0.11842105263157898
439,836.0520094562648,0.125
440,838.8494877856579,0.11184210526315785
441,838.8494877856579,0.11842105263157898
442,841.6469661150513,0.11184210526315785
443,841.6469661150513,0.10526315789473684
444,844.4444444444443,0.10526315789473684
445,847.2419227738378,0.10526315789473684
446,850.0394011032308,0.11842105263157898
447,850.0394011032308,0.10526315789473684
448,850.0394011032308,0.11184210526315785
449,852.8368794326243,0.125
450,852.8368794326243,0.11842105263157898
451,855.6343577620173,0.13157894736842102
452,855.6343577620173,0.125
453,858.4318360914103,0.13157894736842102
454,861.2293144208038,0.13157894736842102
455,864.0267927501968,0.125
456,864.0267927501968,0.13157894736842102
457,866.8242710795903,0.125
458,866.8242710795903,0.11842105263157898
459,869.6217494089833,0.11842105263157898
460,872.4192277383768,0.11842105263157898
461,872.4192277383768,0.11184210526315785
462,875.2167060677698,0.10526315789473684
463,875.2167060677698,0.11184210526315785
464,875.2167060677698,0.09868421052631582
465,878.0141843971633,0.09868421052631582
466,878.0141843971633,0.09210526315789469
467,880.8116627265563,0.07894736842105265
468,880.8116627265563,0.09210526315789469
469,880.8116627265563,0.08552631578947367
470,883.6091410559497,0.07236842105263153
471,883.6091410559497,0.07894736842105265
472,886.4066193853428,0.07236842105263153
473,886.4066193853428,0.06578947368421051
474,889.2040977147362,0.05921052631578949
475,889.2040977147362,0.06578947368421051
476,892.0015760441293,0.052631578947368474
477,892.0015760441293,0.05921052631578949
