,wavenumbers,absorbance
0,452.797478329393,0.03289473684210531
1,455.5949566587865,0.03289473684210531
2,458.3924349881795,0.03289473684210531
3,461.189913317573,0.03289473684210531
4,463.987391646966,0.03289473684210531
5,466.78486997635946,0.03289473684210531
6,469.5823483057525,0.03289473684210531
7,472.37982663514595,0.03289473684210531
8,475.17730496453896,0.03289473684210531
9,477.97478329393243,0.03289473684210531
10,480.77226162332545,0.03289473684210531
11,483.56973995271846,0.03289473684210531
12,486.36721828211193,0.03289473684210531
13,489.16469661150495,0.03289473684210531
14,491.9621749408984,0.03289473684210531
15,494.75965327029144,0.03289473684210531
16,497.5571315996849,0.03289473684210531
17,500.3546099290779,0.03289473684210531
18,503.1520882584714,0.03289473684210531
19,505.9495665878644,0.03289473684210531
20,508.7470449172579,0.03289473684210531
21,511.5445232466509,0.03289473684210531
22,514.3420015760439,0.03289473684210531
23,517.1394799054374,0.03289473684210531
24,519.9369582348304,0.02631578947368418
25,519.9369582348304,0.03289473684210531
26,522.7344365642239,0.02631578947368418
27,525.5319148936169,0.02631578947368418
28,528.3293932230104,0.02631578947368418
29,531.1268715524034,0.02631578947368418
30,533.9243498817968,0.02631578947368418
31,533.9243498817968,0.019736842105263164
32,536.7218282111899,0.019736842105263164
33,539.5193065405833,0.019736842105263164
34,542.3167848699763,0.019736842105263164
35,545.1142631993694,0.019736842105263164
36,547.9117415287628,0.019736842105263164
37,550.7092198581558,0.019736842105263164
38,553.5066981875493,0.019736842105263164
39,556.3041765169423,0.019736842105263164
40,559.1016548463358,0.019736842105263164
41,561.8991331757288,0.019736842105263164
42,564.6966115051223,0.019736842105263164
43,567.4940898345153,0.019736842105263164
44,570.2915681639088,0.019736842105263164
45,573.0890464933018,0.019736842105263164
46,575.8865248226948,0.019736842105263164
47,575.8865248226948,0.02631578947368418
48,578.6840031520883,0.02631578947368418
49,581.4814814814813,0.02631578947368418
50,584.2789598108748,0.02631578947368418
51,587.0764381402678,0.03289473684210531
52,587.0764381402678,0.02631578947368418
53,589.8739164696613,0.03289473684210531
54,589.8739164696613,0.03947368421052633
55,592.6713947990543,0.03947368421052633
56,592.6713947990543,0.046052631578947345
57,592.6713947990543,0.052631578947368474
58,595.4688731284477,0.05921052631578949
59,595.4688731284477,0.06578947368421051
60,595.4688731284477,0.07894736842105265
61,595.4688731284477,0.07236842105263153
62,595.4688731284477,0.052631578947368474
63,598.2663514578408,0.09210526315789469
64,598.2663514578408,0.08552631578947367
65,598.2663514578408,0.07894736842105265
66,601.0638297872342,0.09868421052631582
67,601.0638297872342,0.09210526315789469
68,601.0638297872342,0.10526315789473684
69,603.8613081166272,0.09868421052631582
70,603.8613081166272,0.10526315789473684
71,606.6587864460207,0.09868421052631582
72,606.6587864460207,0.09210526315789469
73,606.6587864460207,0.08552631578947367
74,606.6587864460207,0.07894736842105265
75,606.6587864460207,0.07236842105263153
76,609.4562647754137,0.07236842105263153
77,609.4562647754137,0.06578947368421051
78,609.4562647754137,0.05921052631578949
79,612.2537431048067,0.052631578947368474
80,612.2537431048067,0.046052631578947345
81,612.2537431048067,0.05921052631578949
82,615.0512214342002,0.046052631578947345
83,617.8486997635932,0.046052631578947345
84,620.6461780929867,0.052631578947368474
85,620.6461780929867,0.046052631578947345
86,623.4436564223797,0.052631578947368474
87,626.2411347517732,0.052631578947368474
88,629.0386130811662,0.046052631578947345
89,629.0386130811662,0.052631578947368474
90,631.8360914105597,0.046052631578947345
91,634.6335697399527,0.046052631578947345
92,637.4310480693462,0.046052631578947345
93,637.4310480693462,0.03947368421052633
94,640.2285263987392,0.03947368421052633
95,643.0260047281322,0.03947368421052633
96,645.8234830575257,0.03947368421052633
97,648.6209613869187,0.03947368421052633
98,651.4184397163122,0.03289473684210531
99,651.4184397163122,0.03947368421052633
100,654.2159180457052,0.03289473684210531
101,657.0133963750986,0.03289473684210531
102,657.0133963750986,0.02631578947368418
103,659.8108747044917,0.02631578947368418
104,662.6083530338851,0.02631578947368418
105,665.4058313632781,0.019736842105263164
106,665.4058313632781,0.02631578947368418
107,668.2033096926716,0.019736842105263164
108,671.0007880220646,0.019736842105263164
109,673.7982663514576,0.019736842105263164
110,676.5957446808511,0.019736842105263164
111,679.3932230102441,0.019736842105263164
112,682.1907013396376,0.019736842105263164
113,684.9881796690306,0.019736842105263164
114,687.7856579984241,0.03289473684210531
115,687.7856579984241,0.02631578947368418
116,687.7856579984241,0.019736842105263164
117,690.5831363278171,0.052631578947368474
118,690.5831363278171,0.046052631578947345
119,690.5831363278171,0.03289473684210531
120,690.5831363278171,0.03947368421052633
121,693.3806146572106,0.046052631578947345
122,693.3806146572106,0.05921052631578949
123,693.3806146572106,0.052631578947368474
124,696.1780929866036,0.046052631578947345
125,696.1780929866036,0.03947368421052633
126,698.9755713159971,0.03947368421052633
127,698.9755713159971,0.02631578947368418
128,698.9755713159971,0.03289473684210531
129,701.7730496453901,0.02631578947368418
130,701.7730496453901,0.019736842105263164
131,704.5705279747831,0.019736842105263164
132,707.3680063041766,0.019736842105263164
133,710.1654846335696,0.019736842105263164
134,712.962962962963,0.019736842105263164
135,715.7604412923561,0.02631578947368418
136,715.7604412923561,0.019736842105263164
137,718.5579196217495,0.03289473684210531
138,718.5579196217495,0.02631578947368418
139,721.3553979511425,0.03947368421052633
140,721.3553979511425,0.03289473684210531
141,724.152876280536,0.06578947368421051
142,724.152876280536,0.05921052631578949
143,724.152876280536,0.046052631578947345
144,724.152876280536,0.052631578947368474
145,724.152876280536,0.03947368421052633
146,726.950354609929,0.07894736842105265
147,726.950354609929,0.07236842105263153
148,726.950354609929,0.06578947368421051
149,729.7478329393225,0.07894736842105265
150,729.7478329393225,0.08552631578947367
151,732.5453112687155,0.07236842105263153
152,732.5453112687155,0.07894736842105265
153,732.5453112687155,0.08552631578947367
154,732.5453112687155,0.06578947368421051
155,735.3427895981085,0.06578947368421051
156,735.3427895981085,0.05921052631578949
157,738.140267927502,0.052631578947368474
158,738.140267927502,0.03947368421052633
159,738.140267927502,0.05921052631578949
160,738.140267927502,0.046052631578947345
161,740.937746256895,0.03289473684210531
162,740.937746256895,0.03947368421052633
163,743.7352245862885,0.02631578947368418
164,743.7352245862885,0.03289473684210531
165,746.5327029156815,0.02631578947368418
166,749.330181245075,0.02631578947368418
167,749.330181245075,0.019736842105263164
168,752.127659574468,0.019736842105263164
169,754.9251379038615,0.019736842105263164
170,757.7226162332545,0.019736842105263164
171,760.520094562648,0.019736842105263164
172,763.317572892041,0.019736842105263164
173,766.115051221434,0.019736842105263164
174,768.9125295508275,0.019736842105263164
175,771.7100078802205,0.019736842105263164
176,774.507486209614,0.019736842105263164
177,774.507486209614,0.013157894736842146
178,777.304964539007,0.019736842105263164
179,780.1024428684004,0.019736842105263164
180,782.8999211977934,0.019736842105263164
181,782.8999211977934,0.02631578947368418
182,785.6973995271869,0.02631578947368418
183,788.4948778565799,0.02631578947368418
184,788.4948778565799,0.03289473684210531
185,791.2923561859734,0.03947368421052633
186,791.2923561859734,0.03289473684210531
187,794.0898345153664,0.03289473684210531
188,794.0898345153664,0.03947368421052633
189,796.8873128447594,0.03289473684210531
190,799.6847911741529,0.03289473684210531
191,802.4822695035459,0.02631578947368418
192,802.4822695035459,0.03289473684210531
193,805.2797478329394,0.02631578947368418
194,808.0772261623324,0.02631578947368418
195,810.8747044917259,0.019736842105263164
196,810.8747044917259,0.02631578947368418
197,813.6721828211189,0.019736842105263164
198,816.4696611505124,0.019736842105263164
199,819.2671394799054,0.019736842105263164
200,822.0646178092989,0.019736842105263164
201,824.8620961386919,0.019736842105263164
202,827.6595744680849,0.019736842105263164
203,830.4570527974784,0.019736842105263164
204,833.2545311268714,0.019736842105263164
205,836.0520094562648,0.019736842105263164
206,838.8494877856579,0.019736842105263164
207,841.6469661150513,0.019736842105263164
208,844.4444444444443,0.019736842105263164
209,847.2419227738378,0.019736842105263164
210,850.0394011032308,0.019736842105263164
211,852.8368794326243,0.019736842105263164
212,855.6343577620173,0.02631578947368418
213,855.6343577620173,0.019736842105263164
214,858.4318360914103,0.02631578947368418
215,861.2293144208038,0.02631578947368418
216,864.0267927501968,0.02631578947368418
217,866.8242710795903,0.02631578947368418
218,869.6217494089833,0.02631578947368418
219,872.4192277383768,0.02631578947368418
220,875.2167060677698,0.02631578947368418
221,878.0141843971633,0.02631578947368418
222,880.8116627265563,0.02631578947368418
223,883.6091410559497,0.03289473684210531
224,883.6091410559497,0.02631578947368418
225,886.4066193853428,0.03289473684210531
226,889.2040977147362,0.03289473684210531
227,892.0015760441293,0.03289473684210531
228,894.7990543735223,0.03289473684210531
229,897.5965327029157,0.03289473684210531
230,897.5965327029157,0.03947368421052633
231,900.3940110323088,0.03947368421052633
232,903.1914893617022,0.03947368421052633
233,905.9889676910952,0.03947368421052633
234,908.7864460204887,0.03947368421052633
235,908.7864460204887,0.046052631578947345
236,911.5839243498817,0.046052631578947345
237,914.3814026792752,0.046052631578947345
238,914.3814026792752,0.052631578947368474
239,917.1788810086682,0.052631578947368474
240,917.1788810086682,0.05921052631578949
241,919.9763593380617,0.05921052631578949
242,922.7738376674547,0.05921052631578949
243,922.7738376674547,0.07236842105263153
244,922.7738376674547,0.06578947368421051
245,925.5713159968477,0.07894736842105265
246,925.5713159968477,0.07236842105263153
247,928.3687943262412,0.08552631578947367
248,928.3687943262412,0.07894736842105265
249,931.1662726556342,0.09210526315789469
250,931.1662726556342,0.09868421052631582
251,931.1662726556342,0.08552631578947367
252,931.1662726556342,0.10526315789473684
253,933.9637509850277,0.11184210526315785
254,933.9637509850277,0.10526315789473684
255,936.7612293144207,0.11184210526315785
256,936.7612293144207,0.11842105263157898
257,936.7612293144207,0.125
258,939.5587076438142,0.125
259,942.3561859732072,0.13157894736842102
260,942.3561859732072,0.125
261,945.1536643026006,0.125
262,945.1536643026006,0.11842105263157898
263,947.9511426319937,0.11842105263157898
264,947.9511426319937,0.11184210526315785
265,947.9511426319937,0.10526315789473684
266,950.7486209613871,0.10526315789473684
267,953.5460992907801,0.09868421052631582
268,953.5460992907801,0.10526315789473684
269,956.3435776201732,0.09868421052631582
270,956.3435776201732,0.09210526315789469
271,959.1410559495666,0.09210526315789469
272,961.9385342789597,0.09210526315789469
273,961.9385342789597,0.08552631578947367
274,964.7360126083531,0.07894736842105265
275,964.7360126083531,0.08552631578947367
276,967.5334909377461,0.07894736842105265
277,970.3309692671396,0.07894736842105265
278,970.3309692671396,0.07236842105263153
279,973.1284475965326,0.07236842105263153
280,975.9259259259261,0.07236842105263153
281,978.7234042553191,0.07894736842105265
282,978.7234042553191,0.07236842105263153
283,981.5208825847126,0.07894736842105265
284,984.3183609141056,0.07894736842105265
285,987.1158392434986,0.07894736842105265
286,987.1158392434986,0.08552631578947367
287,989.9133175728921,0.08552631578947367
288,992.7107959022851,0.09868421052631582
289,992.7107959022851,0.09210526315789469
290,992.7107959022851,0.08552631578947367
291,995.5082742316786,0.10526315789473684
292,995.5082742316786,0.09868421052631582
293,998.3057525610716,0.125
294,998.3057525610716,0.10526315789473684
295,998.3057525610716,0.11842105263157898
296,998.3057525610716,0.11184210526315785
297,1001.103230890465,0.13157894736842102
298,1001.103230890465,0.13815789473684215
299,1001.103230890465,0.125
300,1003.9007092198581,0.14473684210526316
301,1003.9007092198581,0.17105263157894735
302,1003.9007092198581,0.15131578947368418
303,1003.9007092198581,0.1578947368421053
304,1003.9007092198581,0.13815789473684215
305,1003.9007092198581,0.16447368421052633
306,1003.9007092198581,0.17763157894736847
307,1006.6981875492515,0.21052631578947367
308,1006.6981875492515,0.17763157894736847
309,1006.6981875492515,0.19736842105263153
310,1006.6981875492515,0.1907894736842105
311,1006.6981875492515,0.20394736842105265
312,1006.6981875492515,0.1842105263157895
313,1009.4956658786446,0.25
314,1009.4956658786446,0.2171052631578947
315,1009.4956658786446,0.26315789473684215
316,1009.4956658786446,0.2828947368421053
317,1009.4956658786446,0.2763157894736842
318,1009.4956658786446,0.256578947368421
319,1009.4956658786446,0.24342105263157898
320,1009.4956658786446,0.23684210526315785
321,1009.4956658786446,0.22368421052631582
322,1009.4956658786446,0.23026315789473684
323,1009.4956658786446,0.21052631578947367
324,1009.4956658786446,0.26973684210526316
325,1012.293144208038,0.2828947368421053
326,1012.293144208038,0.3092105263157895
327,1012.293144208038,0.2894736842105263
328,1012.293144208038,0.3223684210526315
329,1012.293144208038,0.3026315789473685
330,1012.293144208038,0.29605263157894735
331,1012.293144208038,0.3157894736842105
332,1015.090622537431,0.3355263157894737
333,1015.090622537431,0.3421052631578947
334,1015.090622537431,0.3223684210526315
335,1015.090622537431,0.32894736842105265
336,1015.090622537431,0.3486842105263158
337,1017.8881008668241,0.368421052631579
338,1017.8881008668241,0.35526315789473684
339,1017.8881008668241,0.36184210526315785
340,1017.8881008668241,0.3486842105263158
341,1020.6855791962175,0.368421052631579
342,1020.6855791962175,0.36184210526315785
343,1020.6855791962175,0.35526315789473684
344,1023.4830575256105,0.35526315789473684
345,1023.4830575256105,0.3486842105263158
346,1023.4830575256105,0.32894736842105265
347,1023.4830575256105,0.3421052631578947
348,1023.4830575256105,0.3157894736842105
349,1023.4830575256105,0.3355263157894737
350,1023.4830575256105,0.3223684210526315
351,1023.4830575256105,0.3092105263157895
352,1026.280535855004,0.2894736842105263
353,1026.280535855004,0.3092105263157895
354,1026.280535855004,0.29605263157894735
355,1026.280535855004,0.3026315789473685
356,1029.078014184397,0.26315789473684215
357,1029.078014184397,0.2763157894736842
358,1029.078014184397,0.25
359,1029.078014184397,0.26973684210526316
360,1029.078014184397,0.2894736842105263
361,1029.078014184397,0.256578947368421
362,1029.078014184397,0.2828947368421053
363,1031.8754925137905,0.25
364,1031.8754925137905,0.24342105263157898
365,1031.8754925137905,0.23684210526315785
366,1034.6729708431835,0.22368421052631582
367,1034.6729708431835,0.23026315789473684
368,1034.6729708431835,0.23684210526315785
369,1037.470449172577,0.2171052631578947
370,1037.470449172577,0.22368421052631582
371,1040.26792750197,0.21052631578947367
372,1040.26792750197,0.2171052631578947
373,1043.0654058313635,0.20394736842105265
374,1043.0654058313635,0.21052631578947367
375,1045.8628841607565,0.20394736842105265
376,1045.8628841607565,0.19736842105263153
377,1048.6603624901495,0.19736842105263153
378,1048.6603624901495,0.1842105263157895
379,1048.6603624901495,0.17763157894736847
380,1048.6603624901495,0.1907894736842105
381,1051.457840819543,0.17105263157894735
382,1051.457840819543,0.17763157894736847
383,1051.457840819543,0.16447368421052633
384,1054.255319148936,0.1578947368421053
385,1054.255319148936,0.16447368421052633
386,1057.0527974783295,0.1578947368421053
387,1057.0527974783295,0.15131578947368418
388,1059.8502758077225,0.15131578947368418
389,1062.647754137116,0.14473684210526316
390,1062.647754137116,0.15131578947368418
391,1065.445232466509,0.14473684210526316
392,1068.2427107959024,0.14473684210526316
393,1071.0401891252955,0.14473684210526316
394,1073.837667454689,0.14473684210526316
395,1076.635145784082,0.14473684210526316
396,1079.432624113475,0.14473684210526316
397,1082.2301024428684,0.14473684210526316
398,1085.0275807722614,0.14473684210526316
399,1087.825059101655,0.14473684210526316
400,1090.622537431048,0.14473684210526316
401,1093.4200157604414,0.14473684210526316
402,1093.4200157604414,0.15131578947368418
403,1096.2174940898344,0.15131578947368418
404,1099.014972419228,0.15131578947368418
405,1099.014972419228,0.1578947368421053
406,1101.812450748621,0.1578947368421053
407,1104.6099290780144,0.16447368421052633
408,1104.6099290780144,0.1578947368421053
409,1107.4074074074074,0.16447368421052633
410,1110.2048857368004,0.16447368421052633
411,1110.2048857368004,0.17105263157894735
412,1113.0023640661939,0.17105263157894735
413,1115.799842395587,0.17105263157894735
414,1118.5973207249804,0.17105263157894735
415,1121.3947990543734,0.16447368421052633
416,1121.3947990543734,0.17105263157894735
417,1124.1922773837669,0.16447368421052633
418,1126.9897557131599,0.1578947368421053
419,1126.9897557131599,0.16447368421052633
420,1129.7872340425533,0.1578947368421053
421,1129.7872340425533,0.15131578947368418
422,1129.7872340425533,0.14473684210526316
423,1132.5847123719464,0.13815789473684215
424,1132.5847123719464,0.14473684210526316
425,1135.3821907013398,0.13815789473684215
426,1135.3821907013398,0.13157894736842102
427,1135.3821907013398,0.125
428,1135.3821907013398,0.11842105263157898
429,1138.1796690307328,0.11842105263157898
430,1138.1796690307328,0.11184210526315785
431,1140.9771473601263,0.09868421052631582
432,1140.9771473601263,0.11184210526315785
433,1140.9771473601263,0.10526315789473684
434,1143.7746256895193,0.09210526315789469
435,1143.7746256895193,0.09868421052631582
436,1146.5721040189123,0.08552631578947367
437,1146.5721040189123,0.09210526315789469
438,1146.5721040189123,0.07894736842105265
439,1149.3695823483058,0.07894736842105265
440,1152.1670606776988,0.07894736842105265
441,1152.1670606776988,0.07236842105263153
442,1154.9645390070923,0.07894736842105265
443,1154.9645390070923,0.07236842105263153
444,1157.7620173364853,0.07894736842105265
445,1160.5594956658788,0.07894736842105265
446,1163.3569739952718,0.07894736842105265
447,1166.1544523246653,0.07894736842105265
448,1168.9519306540583,0.08552631578947367
449,1168.9519306540583,0.07894736842105265
450,1171.7494089834518,0.08552631578947367
451,1174.5468873128448,0.09210526315789469
452,1174.5468873128448,0.08552631578947367
453,1177.3443656422378,0.09210526315789469
454,1180.1418439716313,0.09210526315789469
455,1182.9393223010243,0.09868421052631582
456,1182.9393223010243,0.09210526315789469
457,1185.7368006304177,0.09868421052631582
458,1185.7368006304177,0.10526315789473684
459,1188.5342789598108,0.11184210526315785
460,1188.5342789598108,0.10526315789473684
461,1191.3317572892042,0.11184210526315785
462,1191.3317572892042,0.11842105263157898
463,1194.1292356185972,0.125
464,1194.1292356185972,0.13157894736842102
465,1194.1292356185972,0.11842105263157898
466,1196.9267139479907,0.13157894736842102
