,wavenumbers,absorbance
0,452.797478329393,0.03289473684210531
1,452.797478329393,0.03947368421052633
2,455.5949566587865,0.03289473684210531
3,455.5949566587865,0.019736842105263164
4,455.5949566587865,0.02631578947368418
5,458.3924349881795,0.019736842105263164
6,461.189913317573,0.019736842105263164
7,463.987391646966,0.019736842105263164
8,463.987391646966,0.02631578947368418
9,466.78486997635946,0.02631578947368418
10,469.5823483057525,0.02631578947368418
11,472.37982663514595,0.02631578947368418
12,475.17730496453896,0.02631578947368418
13,477.97478329393243,0.03289473684210531
14,477.97478329393243,0.02631578947368418
15,480.77226162332545,0.03289473684210531
16,483.56973995271846,0.03289473684210531
17,486.36721828211193,0.03289473684210531
18,489.16469661150495,0.03289473684210531
19,491.9621749408984,0.03289473684210531
20,494.75965327029144,0.03289473684210531
21,497.5571315996849,0.03289473684210531
22,497.5571315996849,0.02631578947368418
23,500.3546099290779,0.02631578947368418
24,503.1520882584714,0.02631578947368418
25,505.9495665878644,0.02631578947368418
26,508.7470449172579,0.02631578947368418
27,511.5445232466509,0.02631578947368418
28,514.3420015760439,0.02631578947368418
29,517.1394799054374,0.02631578947368418
30,519.9369582348304,0.02631578947368418
31,519.9369582348304,0.03289473684210531
32,522.7344365642239,0.03289473684210531
33,525.5319148936169,0.03289473684210531
34,528.3293932230104,0.03289473684210531
35,531.1268715524034,0.03289473684210531
36,533.9243498817968,0.03289473684210531
37,533.9243498817968,0.03947368421052633
38,536.7218282111899,0.03947368421052633
39,539.5193065405833,0.03947368421052633
40,542.3167848699763,0.03947368421052633
41,545.1142631993694,0.03947368421052633
42,547.9117415287628,0.03947368421052633
43,550.7092198581558,0.03947368421052633
44,553.5066981875493,0.03947368421052633
45,556.3041765169423,0.03947368421052633
46,559.1016548463358,0.03947368421052633
47,561.8991331757288,0.03947368421052633
48,564.6966115051223,0.03947368421052633
49,564.6966115051223,0.046052631578947345
50,567.4940898345153,0.046052631578947345
51,570.2915681639088,0.046052631578947345
52,573.0890464933018,0.046052631578947345
53,575.8865248226948,0.046052631578947345
54,578.6840031520883,0.046052631578947345
55,581.4814814814813,0.046052631578947345
56,581.4814814814813,0.03947368421052633
57,584.2789598108748,0.03947368421052633
58,587.0764381402678,0.03947368421052633
59,589.8739164696613,0.03289473684210531
60,589.8739164696613,0.03947368421052633
61,592.6713947990543,0.03289473684210531
62,595.4688731284477,0.03289473684210531
63,598.2663514578408,0.03289473684210531
64,601.0638297872342,0.03289473684210531
65,601.0638297872342,0.03947368421052633
66,603.8613081166272,0.03947368421052633
67,606.6587864460207,0.03947368421052633
68,609.4562647754137,0.03947368421052633
69,612.2537431048067,0.03947368421052633
70,615.0512214342002,0.03947368421052633
71,617.8486997635932,0.03947368421052633
72,620.6461780929867,0.03947368421052633
73,623.4436564223797,0.03947368421052633
74,626.2411347517732,0.03947368421052633
75,626.2411347517732,0.046052631578947345
76,629.0386130811662,0.03947368421052633
77,631.8360914105597,0.03947368421052633
78,634.6335697399527,0.03947368421052633
79,637.4310480693462,0.03947368421052633
80,637.4310480693462,0.046052631578947345
81,640.2285263987392,0.046052631578947345
82,643.0260047281322,0.052631578947368474
83,643.0260047281322,0.046052631578947345
84,645.8234830575257,0.052631578947368474
85,645.8234830575257,0.05921052631578949
86,648.6209613869187,0.05921052631578949
87,651.4184397163122,0.05921052631578949
88,651.4184397163122,0.052631578947368474
89,651.4184397163122,0.046052631578947345
90,654.2159180457052,0.046052631578947345
91,657.0133963750986,0.046052631578947345
92,659.8108747044917,0.046052631578947345
93,662.6083530338851,0.046052631578947345
94,665.4058313632781,0.046052631578947345
95,668.2033096926716,0.052631578947368474
96,668.2033096926716,0.046052631578947345
97,671.0007880220646,0.052631578947368474
98,673.7982663514576,0.052631578947368474
99,676.5957446808511,0.05921052631578949
100,676.5957446808511,0.052631578947368474
101,679.3932230102441,0.06578947368421051
102,679.3932230102441,0.05921052631578949
103,682.1907013396376,0.07236842105263153
104,682.1907013396376,0.07894736842105265
105,682.1907013396376,0.06578947368421051
106,684.9881796690306,0.07894736842105265
107,684.9881796690306,0.08552631578947367
108,687.7856579984241,0.08552631578947367
109,687.7856579984241,0.09210526315789469
110,690.5831363278171,0.09210526315789469
111,690.5831363278171,0.09868421052631582
112,693.3806146572106,0.11184210526315785
113,693.3806146572106,0.09868421052631582
114,693.3806146572106,0.10526315789473684
115,696.1780929866036,0.11842105263157898
116,696.1780929866036,0.11184210526315785
117,696.1780929866036,0.125
118,698.9755713159971,0.14473684210526316
119,698.9755713159971,0.125
120,698.9755713159971,0.13815789473684215
121,698.9755713159971,0.15131578947368418
122,698.9755713159971,0.1578947368421053
123,698.9755713159971,0.13157894736842102
124,701.7730496453901,0.1578947368421053
125,701.7730496453901,0.15131578947368418
126,704.5705279747831,0.14473684210526316
127,704.5705279747831,0.15131578947368418
128,704.5705279747831,0.13815789473684215
129,707.3680063041766,0.13815789473684215
130,707.3680063041766,0.13157894736842102
131,707.3680063041766,0.11184210526315785
132,707.3680063041766,0.11842105263157898
133,707.3680063041766,0.125
134,710.1654846335696,0.11184210526315785
135,712.962962962963,0.11184210526315785
136,715.7604412923561,0.11842105263157898
137,715.7604412923561,0.11184210526315785
138,718.5579196217495,0.11842105263157898
139,721.3553979511425,0.125
140,721.3553979511425,0.11842105263157898
141,724.152876280536,0.125
142,724.152876280536,0.11842105263157898
143,726.950354609929,0.13157894736842102
144,726.950354609929,0.125
145,729.7478329393225,0.14473684210526316
146,729.7478329393225,0.15131578947368418
147,729.7478329393225,0.13815789473684215
148,729.7478329393225,0.13157894736842102
149,732.5453112687155,0.1578947368421053
150,732.5453112687155,0.1907894736842105
151,732.5453112687155,0.21052631578947367
152,732.5453112687155,0.20394736842105265
153,732.5453112687155,0.15131578947368418
154,732.5453112687155,0.17105263157894735
155,732.5453112687155,0.17763157894736847
156,732.5453112687155,0.19736842105263153
157,732.5453112687155,0.16447368421052633
158,732.5453112687155,0.1842105263157895
159,735.3427895981085,0.22368421052631582
160,735.3427895981085,0.2171052631578947
161,735.3427895981085,0.21052631578947367
162,735.3427895981085,0.23026315789473684
163,738.140267927502,0.23684210526315785
164,738.140267927502,0.23026315789473684
165,740.937746256895,0.23026315789473684
166,740.937746256895,0.21052631578947367
167,740.937746256895,0.2171052631578947
168,740.937746256895,0.22368421052631582
169,743.7352245862885,0.1578947368421053
170,743.7352245862885,0.16447368421052633
171,743.7352245862885,0.17763157894736847
172,743.7352245862885,0.1907894736842105
173,743.7352245862885,0.20394736842105265
174,743.7352245862885,0.15131578947368418
175,743.7352245862885,0.17105263157894735
176,743.7352245862885,0.1842105263157895
177,743.7352245862885,0.21052631578947367
178,743.7352245862885,0.19736842105263153
179,746.5327029156815,0.15131578947368418
180,746.5327029156815,0.13815789473684215
181,746.5327029156815,0.14473684210526316
182,746.5327029156815,0.13157894736842102
183,749.330181245075,0.09868421052631582
184,749.330181245075,0.13157894736842102
185,749.330181245075,0.10526315789473684
186,749.330181245075,0.125
187,749.330181245075,0.11842105263157898
188,749.330181245075,0.11184210526315785
189,752.127659574468,0.08552631578947367
190,752.127659574468,0.09868421052631582
191,752.127659574468,0.09210526315789469
192,754.9251379038615,0.07236842105263153
193,754.9251379038615,0.07894736842105265
194,754.9251379038615,0.08552631578947367
195,757.7226162332545,0.07236842105263153
196,760.520094562648,0.07236842105263153
197,763.317572892041,0.07236842105263153
198,763.317572892041,0.07894736842105265
199,766.115051221434,0.07894736842105265
200,768.9125295508275,0.07894736842105265
201,771.7100078802205,0.07894736842105265
202,774.507486209614,0.07894736842105265
203,777.304964539007,0.07894736842105265
204,780.1024428684004,0.07894736842105265
205,782.8999211977934,0.07894736842105265
206,785.6973995271869,0.07894736842105265
207,788.4948778565799,0.07894736842105265
208,788.4948778565799,0.07236842105263153
209,791.2923561859734,0.07236842105263153
210,794.0898345153664,0.06578947368421051
211,794.0898345153664,0.07236842105263153
212,796.8873128447594,0.06578947368421051
213,796.8873128447594,0.05921052631578949
214,799.6847911741529,0.05921052631578949
215,799.6847911741529,0.046052631578947345
216,799.6847911741529,0.052631578947368474
217,802.4822695035459,0.046052631578947345
218,802.4822695035459,0.03947368421052633
219,805.2797478329394,0.03947368421052633
220,808.0772261623324,0.03947368421052633
221,810.8747044917259,0.046052631578947345
222,810.8747044917259,0.03947368421052633
223,813.6721828211189,0.046052631578947345
224,813.6721828211189,0.052631578947368474
225,816.4696611505124,0.052631578947368474
226,819.2671394799054,0.052631578947368474
227,822.0646178092989,0.052631578947368474
228,824.8620961386919,0.052631578947368474
229,824.8620961386919,0.046052631578947345
230,827.6595744680849,0.046052631578947345
231,830.4570527974784,0.046052631578947345
232,833.2545311268714,0.046052631578947345
233,836.0520094562648,0.046052631578947345
234,838.8494877856579,0.046052631578947345
235,841.6469661150513,0.046052631578947345
236,844.4444444444443,0.046052631578947345
237,847.2419227738378,0.046052631578947345
238,850.0394011032308,0.052631578947368474
239,850.0394011032308,0.046052631578947345
240,852.8368794326243,0.052631578947368474
241,855.6343577620173,0.052631578947368474
242,858.4318360914103,0.052631578947368474
243,861.2293144208038,0.052631578947368474
244,864.0267927501968,0.052631578947368474
245,866.8242710795903,0.052631578947368474
246,869.6217494089833,0.05921052631578949
247,869.6217494089833,0.052631578947368474
248,872.4192277383768,0.05921052631578949
249,875.2167060677698,0.05921052631578949
250,878.0141843971633,0.06578947368421051
251,880.8116627265563,0.06578947368421051
252,883.6091410559497,0.06578947368421051
253,886.4066193853428,0.06578947368421051
254,889.2040977147362,0.06578947368421051
255,892.0015760441293,0.06578947368421051
256,894.7990543735223,0.06578947368421051
257,894.7990543735223,0.07236842105263153
258,897.5965327029157,0.07236842105263153
259,900.3940110323088,0.07894736842105265
260,900.3940110323088,0.07236842105263153
261,903.1914893617022,0.08552631578947367
262,903.1914893617022,0.07894736842105265
263,905.9889676910952,0.08552631578947367
264,908.7864460204887,0.08552631578947367
265,911.5839243498817,0.08552631578947367
266,914.3814026792752,0.08552631578947367
267,917.1788810086682,0.08552631578947367
268,919.9763593380617,0.08552631578947367
269,922.7738376674547,0.08552631578947367
270,925.5713159968477,0.08552631578947367
271,928.3687943262412,0.08552631578947367
272,931.1662726556342,0.08552631578947367
273,933.9637509850277,0.08552631578947367
274,936.7612293144207,0.08552631578947367
275,939.5587076438142,0.08552631578947367
276,942.3561859732072,0.08552631578947367
277,942.3561859732072,0.09210526315789469
278,945.1536643026006,0.09210526315789469
279,947.9511426319937,0.09868421052631582
280,947.9511426319937,0.09210526315789469
281,950.7486209613871,0.09868421052631582
282,953.5460992907801,0.09868421052631582
283,953.5460992907801,0.11184210526315785
284,953.5460992907801,0.10526315789473684
285,956.3435776201732,0.11184210526315785
286,956.3435776201732,0.11842105263157898
287,959.1410559495666,0.11842105263157898
288,959.1410559495666,0.125
289,961.9385342789597,0.13815789473684215
290,961.9385342789597,0.125
291,961.9385342789597,0.13157894736842102
292,964.7360126083531,0.13815789473684215
293,964.7360126083531,0.14473684210526316
294,967.5334909377461,0.14473684210526316
295,970.3309692671396,0.14473684210526316
296,970.3309692671396,0.13815789473684215
297,973.1284475965326,0.14473684210526316
298,973.1284475965326,0.13815789473684215
299,975.9259259259261,0.13815789473684215
300,975.9259259259261,0.14473684210526316
301,978.7234042553191,0.13815789473684215
302,981.5208825847126,0.13815789473684215
303,984.3183609141056,0.13815789473684215
304,987.1158392434986,0.13815789473684215
305,989.9133175728921,0.13815789473684215
306,992.7107959022851,0.13815789473684215
307,992.7107959022851,0.13157894736842102
308,995.5082742316786,0.13815789473684215
309,998.3057525610716,0.13815789473684215
310,1001.103230890465,0.13815789473684215
311,1003.9007092198581,0.14473684210526316
312,1003.9007092198581,0.13815789473684215
313,1006.6981875492515,0.14473684210526316
314,1009.4956658786446,0.14473684210526316
315,1009.4956658786446,0.15131578947368418
316,1012.293144208038,0.15131578947368418
317,1015.090622537431,0.15131578947368418
318,1017.8881008668241,0.16447368421052633
319,1017.8881008668241,0.1578947368421053
320,1017.8881008668241,0.15131578947368418
321,1020.6855791962175,0.16447368421052633
322,1023.4830575256105,0.17105263157894735
323,1023.4830575256105,0.16447368421052633
324,1026.280535855004,0.17105263157894735
325,1026.280535855004,0.17763157894736847
326,1029.078014184397,0.17763157894736847
327,1029.078014184397,0.19736842105263153
328,1029.078014184397,0.20394736842105265
329,1029.078014184397,0.1907894736842105
330,1029.078014184397,0.1842105263157895
331,1031.8754925137905,0.2171052631578947
332,1031.8754925137905,0.20394736842105265
333,1031.8754925137905,0.21052631578947367
334,1034.6729708431835,0.2171052631578947
335,1034.6729708431835,0.23684210526315785
336,1034.6729708431835,0.24342105263157898
337,1034.6729708431835,0.23026315789473684
338,1034.6729708431835,0.22368421052631582
339,1037.470449172577,0.23684210526315785
340,1037.470449172577,0.24342105263157898
341,1040.26792750197,0.2171052631578947
342,1040.26792750197,0.21052631578947367
343,1040.26792750197,0.22368421052631582
344,1040.26792750197,0.23684210526315785
345,1040.26792750197,0.23026315789473684
346,1040.26792750197,0.20394736842105265
347,1043.0654058313635,0.20394736842105265
348,1043.0654058313635,0.19736842105263153
349,1045.8628841607565,0.19736842105263153
350,1048.6603624901495,0.20394736842105265
351,1048.6603624901495,0.19736842105263153
352,1051.457840819543,0.2171052631578947
353,1051.457840819543,0.21052631578947367
354,1051.457840819543,0.20394736842105265
355,1054.255319148936,0.23026315789473684
356,1054.255319148936,0.22368421052631582
357,1054.255319148936,0.2171052631578947
358,1054.255319148936,0.23684210526315785
359,1057.0527974783295,0.24342105263157898
360,1057.0527974783295,0.23684210526315785
361,1057.0527974783295,0.25
362,1059.8502758077225,0.2828947368421053
363,1059.8502758077225,0.26315789473684215
364,1059.8502758077225,0.25
365,1059.8502758077225,0.2894736842105263
366,1059.8502758077225,0.29605263157894735
367,1059.8502758077225,0.256578947368421
368,1059.8502758077225,0.2763157894736842
369,1059.8502758077225,0.26973684210526316
370,1062.647754137116,0.3223684210526315
371,1062.647754137116,0.3092105263157895
372,1062.647754137116,0.3157894736842105
373,1062.647754137116,0.29605263157894735
374,1062.647754137116,0.3026315789473685
375,1062.647754137116,0.32894736842105265
376,1065.445232466509,0.368421052631579
377,1065.445232466509,0.375
378,1065.445232466509,0.3486842105263158
379,1065.445232466509,0.36184210526315785
380,1065.445232466509,0.3355263157894737
381,1065.445232466509,0.381578947368421
382,1065.445232466509,0.35526315789473684
383,1065.445232466509,0.3421052631578947
384,1065.445232466509,0.32894736842105265
385,1068.2427107959024,0.381578947368421
386,1068.2427107959024,0.38815789473684215
387,1071.0401891252955,0.38815789473684215
388,1073.837667454689,0.3355263157894737
389,1073.837667454689,0.3421052631578947
390,1073.837667454689,0.36184210526315785
391,1073.837667454689,0.368421052631579
392,1073.837667454689,0.381578947368421
393,1073.837667454689,0.38815789473684215
394,1073.837667454689,0.35526315789473684
395,1073.837667454689,0.3486842105263158
396,1073.837667454689,0.375
397,1076.635145784082,0.3092105263157895
398,1076.635145784082,0.32894736842105265
399,1076.635145784082,0.3223684210526315
400,1076.635145784082,0.3355263157894737
401,1076.635145784082,0.3026315789473685
402,1076.635145784082,0.3157894736842105
403,1076.635145784082,0.29605263157894735
404,1079.432624113475,0.2763157894736842
405,1079.432624113475,0.2894736842105263
406,1079.432624113475,0.23026315789473684
407,1079.432624113475,0.26973684210526316
408,1079.432624113475,0.25
409,1079.432624113475,0.26315789473684215
410,1079.432624113475,0.23684210526315785
411,1079.432624113475,0.2828947368421053
412,1079.432624113475,0.2171052631578947
413,1079.432624113475,0.256578947368421
414,1079.432624113475,0.29605263157894735
415,1079.432624113475,0.24342105263157898
416,1079.432624113475,0.22368421052631582
417,1082.2301024428684,0.21052631578947367
418,1082.2301024428684,0.1907894736842105
419,1082.2301024428684,0.2171052631578947
420,1082.2301024428684,0.19736842105263153
421,1082.2301024428684,0.20394736842105265
422,1085.0275807722614,0.1842105263157895
423,1085.0275807722614,0.17763157894736847
424,1085.0275807722614,0.1907894736842105
425,1087.825059101655,0.17763157894736847
426,1090.622537431048,0.17763157894736847
427,1090.622537431048,0.1907894736842105
428,1090.622537431048,0.1842105263157895
429,1093.4200157604414,0.1907894736842105
430,1093.4200157604414,0.19736842105263153
431,1096.2174940898344,0.2171052631578947
432,1096.2174940898344,0.21052631578947367
433,1096.2174940898344,0.19736842105263153
434,1096.2174940898344,0.20394736842105265
435,1096.2174940898344,0.22368421052631582
436,1099.014972419228,0.22368421052631582
437,1099.014972419228,0.23026315789473684
438,1099.014972419228,0.23684210526315785
439,1099.014972419228,0.24342105263157898
440,1101.812450748621,0.256578947368421
441,1101.812450748621,0.26973684210526316
442,1101.812450748621,0.25
443,1101.812450748621,0.26315789473684215
444,1101.812450748621,0.24342105263157898
445,1104.6099290780144,0.32894736842105265
446,1104.6099290780144,0.3157894736842105
447,1104.6099290780144,0.3355263157894737
448,1104.6099290780144,0.2894736842105263
449,1104.6099290780144,0.3026315789473685
450,1104.6099290780144,0.2763157894736842
451,1104.6099290780144,0.29605263157894735
452,1104.6099290780144,0.3092105263157895
453,1104.6099290780144,0.2828947368421053
454,1104.6099290780144,0.26973684210526316
455,1104.6099290780144,0.3223684210526315
456,1107.4074074074074,0.375
457,1107.4074074074074,0.35526315789473684
458,1107.4074074074074,0.368421052631579
459,1107.4074074074074,0.3486842105263158
460,1107.4074074074074,0.3355263157894737
461,1107.4074074074074,0.36184210526315785
462,1107.4074074074074,0.3421052631578947
463,1110.2048857368004,0.4342105263157895
464,1110.2048857368004,0.38815789473684215
465,1110.2048857368004,0.39473684210526316
466,1110.2048857368004,0.42105263157894735
467,1110.2048857368004,0.4276315789473685
468,1110.2048857368004,0.4144736842105263
469,1110.2048857368004,0.4013157894736842
470,1110.2048857368004,0.375
471,1110.2048857368004,0.45394736842105265
