,wavenumbers,absorbance
0,452.797478329393,0.02631578947368418
1,455.5949566587865,0.02631578947368418
2,458.3924349881795,0.02631578947368418
3,461.189913317573,0.02631578947368418
4,461.189913317573,0.03289473684210531
5,463.987391646966,0.03289473684210531
6,466.78486997635946,0.03289473684210531
7,469.5823483057525,0.02631578947368418
8,469.5823483057525,0.03289473684210531
9,472.37982663514595,0.02631578947368418
10,475.17730496453896,0.02631578947368418
11,477.97478329393243,0.02631578947368418
12,477.97478329393243,0.03289473684210531
13,480.77226162332545,0.03289473684210531
14,483.56973995271846,0.03289473684210531
15,486.36721828211193,0.03289473684210531
16,489.16469661150495,0.03289473684210531
17,491.9621749408984,0.03289473684210531
18,494.75965327029144,0.03289473684210531
19,497.5571315996849,0.03289473684210531
20,500.3546099290779,0.03289473684210531
21,500.3546099290779,0.02631578947368418
22,503.1520882584714,0.02631578947368418
23,505.9495665878644,0.02631578947368418
24,508.7470449172579,0.02631578947368418
25,511.5445232466509,0.02631578947368418
26,514.3420015760439,0.02631578947368418
27,517.1394799054374,0.02631578947368418
28,519.9369582348304,0.02631578947368418
29,522.7344365642239,0.02631578947368418
30,525.5319148936169,0.019736842105263164
31,525.5319148936169,0.02631578947368418
32,528.3293932230104,0.02631578947368418
33,528.3293932230104,0.019736842105263164
34,531.1268715524034,0.02631578947368418
35,533.9243498817968,0.02631578947368418
36,536.7218282111899,0.02631578947368418
37,539.5193065405833,0.02631578947368418
38,542.3167848699763,0.02631578947368418
39,545.1142631993694,0.02631578947368418
40,547.9117415287628,0.02631578947368418
41,550.7092198581558,0.02631578947368418
42,553.5066981875493,0.02631578947368418
43,556.3041765169423,0.02631578947368418
44,559.1016548463358,0.02631578947368418
45,559.1016548463358,0.019736842105263164
46,561.8991331757288,0.019736842105263164
47,564.6966115051223,0.019736842105263164
48,567.4940898345153,0.019736842105263164
49,570.2915681639088,0.02631578947368418
50,570.2915681639088,0.019736842105263164
51,573.0890464933018,0.02631578947368418
52,575.8865248226948,0.02631578947368418
53,578.6840031520883,0.02631578947368418
54,581.4814814814813,0.02631578947368418
55,584.2789598108748,0.02631578947368418
56,587.0764381402678,0.02631578947368418
57,589.8739164696613,0.02631578947368418
58,592.6713947990543,0.02631578947368418
59,595.4688731284477,0.02631578947368418
60,598.2663514578408,0.02631578947368418
61,601.0638297872342,0.02631578947368418
62,603.8613081166272,0.02631578947368418
63,606.6587864460207,0.02631578947368418
64,609.4562647754137,0.02631578947368418
65,612.2537431048067,0.02631578947368418
66,615.0512214342002,0.02631578947368418
67,617.8486997635932,0.02631578947368418
68,620.6461780929867,0.02631578947368418
69,623.4436564223797,0.02631578947368418
70,626.2411347517732,0.02631578947368418
71,629.0386130811662,0.02631578947368418
72,631.8360914105597,0.02631578947368418
73,634.6335697399527,0.02631578947368418
74,637.4310480693462,0.02631578947368418
75,640.2285263987392,0.02631578947368418
76,640.2285263987392,0.019736842105263164
77,643.0260047281322,0.019736842105263164
78,645.8234830575257,0.019736842105263164
79,648.6209613869187,0.019736842105263164
80,651.4184397163122,0.019736842105263164
81,654.2159180457052,0.019736842105263164
82,657.0133963750986,0.019736842105263164
83,659.8108747044917,0.019736842105263164
84,662.6083530338851,0.019736842105263164
85,665.4058313632781,0.019736842105263164
86,665.4058313632781,0.02631578947368418
87,668.2033096926716,0.02631578947368418
88,671.0007880220646,0.02631578947368418
89,673.7982663514576,0.02631578947368418
90,676.5957446808511,0.02631578947368418
91,676.5957446808511,0.03289473684210531
92,679.3932230102441,0.03947368421052633
93,679.3932230102441,0.03289473684210531
94,682.1907013396376,0.03289473684210531
95,682.1907013396376,0.03947368421052633
96,684.9881796690306,0.046052631578947345
97,684.9881796690306,0.03947368421052633
98,687.7856579984241,0.052631578947368474
99,687.7856579984241,0.046052631578947345
100,690.5831363278171,0.052631578947368474
101,690.5831363278171,0.05921052631578949
102,693.3806146572106,0.06578947368421051
103,693.3806146572106,0.05921052631578949
104,696.1780929866036,0.06578947368421051
105,696.1780929866036,0.07236842105263153
106,701.7730496453901,0.07236842105263153
107,701.7730496453901,0.07894736842105265
108,704.5705279747831,0.07894736842105265
109,707.3680063041766,0.08552631578947367
110,707.3680063041766,0.07894736842105265
111,710.1654846335696,0.08552631578947367
112,712.962962962963,0.09210526315789469
113,712.962962962963,0.08552631578947367
114,712.962962962963,0.09868421052631582
115,715.7604412923561,0.10526315789473684
116,715.7604412923561,0.09868421052631582
117,718.5579196217495,0.10526315789473684
118,718.5579196217495,0.11842105263157898
119,718.5579196217495,0.11184210526315785
120,721.3553979511425,0.11184210526315785
121,721.3553979511425,0.11842105263157898
122,724.152876280536,0.11184210526315785
123,724.152876280536,0.10526315789473684
124,724.152876280536,0.09868421052631582
125,726.950354609929,0.09868421052631582
126,726.950354609929,0.09210526315789469
127,729.7478329393225,0.08552631578947367
128,729.7478329393225,0.09210526315789469
129,732.5453112687155,0.07236842105263153
130,732.5453112687155,0.07894736842105265
131,732.5453112687155,0.08552631578947367
132,735.3427895981085,0.06578947368421051
133,735.3427895981085,0.07236842105263153
134,738.140267927502,0.06578947368421051
135,738.140267927502,0.05921052631578949
136,740.937746256895,0.05921052631578949
137,743.7352245862885,0.05921052631578949
138,743.7352245862885,0.052631578947368474
139,746.5327029156815,0.052631578947368474
140,746.5327029156815,0.046052631578947345
141,749.330181245075,0.046052631578947345
142,749.330181245075,0.03947368421052633
143,752.127659574468,0.03947368421052633
144,754.9251379038615,0.03289473684210531
145,754.9251379038615,0.03947368421052633
146,757.7226162332545,0.03289473684210531
147,760.520094562648,0.03289473684210531
148,763.317572892041,0.03289473684210531
149,763.317572892041,0.02631578947368418
150,766.115051221434,0.02631578947368418
151,768.9125295508275,0.02631578947368418
152,771.7100078802205,0.019736842105263164
153,771.7100078802205,0.02631578947368418
154,774.507486209614,0.02631578947368418
155,774.507486209614,0.019736842105263164
156,777.304964539007,0.019736842105263164
157,777.304964539007,0.02631578947368418
158,780.1024428684004,0.019736842105263164
159,782.8999211977934,0.019736842105263164
160,785.6973995271869,0.019736842105263164
161,788.4948778565799,0.019736842105263164
162,791.2923561859734,0.019736842105263164
163,794.0898345153664,0.02631578947368418
164,794.0898345153664,0.019736842105263164
165,796.8873128447594,0.019736842105263164
166,796.8873128447594,0.02631578947368418
167,799.6847911741529,0.019736842105263164
168,802.4822695035459,0.019736842105263164
169,805.2797478329394,0.019736842105263164
170,808.0772261623324,0.019736842105263164
171,810.8747044917259,0.019736842105263164
172,813.6721828211189,0.019736842105263164
173,816.4696611505124,0.019736842105263164
174,819.2671394799054,0.019736842105263164
175,822.0646178092989,0.019736842105263164
176,822.0646178092989,0.02631578947368418
177,824.8620961386919,0.02631578947368418
178,827.6595744680849,0.03289473684210531
179,827.6595744680849,0.02631578947368418
180,830.4570527974784,0.03947368421052633
181,830.4570527974784,0.03289473684210531
182,833.2545311268714,0.03947368421052633
183,836.0520094562648,0.03947368421052633
184,838.8494877856579,0.046052631578947345
185,838.8494877856579,0.03947368421052633
186,841.6469661150513,0.046052631578947345
187,841.6469661150513,0.052631578947368474
188,844.4444444444443,0.052631578947368474
189,847.2419227738378,0.052631578947368474
190,850.0394011032308,0.05921052631578949
191,850.0394011032308,0.052631578947368474
192,852.8368794326243,0.06578947368421051
193,852.8368794326243,0.05921052631578949
194,855.6343577620173,0.05921052631578949
195,855.6343577620173,0.06578947368421051
196,858.4318360914103,0.05921052631578949
197,861.2293144208038,0.05921052631578949
198,864.0267927501968,0.05921052631578949
199,866.8242710795903,0.05921052631578949
200,866.8242710795903,0.052631578947368474
201,869.6217494089833,0.052631578947368474
202,869.6217494089833,0.05921052631578949
203,872.4192277383768,0.052631578947368474
204,875.2167060677698,0.052631578947368474
205,878.0141843971633,0.052631578947368474
206,880.8116627265563,0.052631578947368474
207,883.6091410559497,0.052631578947368474
208,883.6091410559497,0.05921052631578949
209,886.4066193853428,0.05921052631578949
210,889.2040977147362,0.05921052631578949
211,889.2040977147362,0.052631578947368474
212,892.0015760441293,0.052631578947368474
213,894.7990543735223,0.052631578947368474
214,897.5965327029157,0.052631578947368474
215,900.3940110323088,0.05921052631578949
216,900.3940110323088,0.052631578947368474
217,903.1914893617022,0.05921052631578949
218,905.9889676910952,0.05921052631578949
219,908.7864460204887,0.05921052631578949
220,911.5839243498817,0.05921052631578949
221,914.3814026792752,0.05921052631578949
222,917.1788810086682,0.05921052631578949
223,919.9763593380617,0.05921052631578949
224,922.7738376674547,0.05921052631578949
225,925.5713159968477,0.05921052631578949
226,928.3687943262412,0.05921052631578949
227,931.1662726556342,0.05921052631578949
228,933.9637509850277,0.05921052631578949
229,936.7612293144207,0.05921052631578949
230,936.7612293144207,0.06578947368421051
231,939.5587076438142,0.06578947368421051
232,939.5587076438142,0.07236842105263153
233,942.3561859732072,0.07236842105263153
234,945.1536643026006,0.07236842105263153
235,947.9511426319937,0.07236842105263153
236,950.7486209613871,0.07236842105263153
237,953.5460992907801,0.07236842105263153
238,953.5460992907801,0.07894736842105265
239,956.3435776201732,0.07894736842105265
240,956.3435776201732,0.08552631578947367
241,959.1410559495666,0.08552631578947367
242,961.9385342789597,0.09868421052631582
243,961.9385342789597,0.08552631578947367
244,961.9385342789597,0.09210526315789469
245,964.7360126083531,0.09868421052631582
246,967.5334909377461,0.09868421052631582
247,970.3309692671396,0.09868421052631582
248,973.1284475965326,0.09868421052631582
249,973.1284475965326,0.10526315789473684
250,975.9259259259261,0.10526315789473684
251,978.7234042553191,0.10526315789473684
252,981.5208825847126,0.10526315789473684
253,984.3183609141056,0.10526315789473684
254,987.1158392434986,0.10526315789473684
255,989.9133175728921,0.10526315789473684
256,992.7107959022851,0.10526315789473684
257,995.5082742316786,0.10526315789473684
258,998.3057525610716,0.10526315789473684
259,998.3057525610716,0.11184210526315785
260,1001.103230890465,0.11842105263157898
261,1001.103230890465,0.11184210526315785
262,1003.9007092198581,0.125
263,1003.9007092198581,0.11842105263157898
264,1006.6981875492515,0.125
265,1006.6981875492515,0.13157894736842102
266,1009.4956658786446,0.13815789473684215
267,1009.4956658786446,0.13157894736842102
268,1012.293144208038,0.14473684210526316
269,1012.293144208038,0.13815789473684215
270,1015.090622537431,0.14473684210526316
271,1015.090622537431,0.15131578947368418
272,1017.8881008668241,0.15131578947368418
273,1017.8881008668241,0.1578947368421053
274,1020.6855791962175,0.1578947368421053
275,1020.6855791962175,0.16447368421052633
276,1023.4830575256105,0.17763157894736847
277,1023.4830575256105,0.17105263157894735
278,1023.4830575256105,0.16447368421052633
279,1026.280535855004,0.17763157894736847
280,1026.280535855004,0.1842105263157895
281,1029.078014184397,0.1842105263157895
282,1029.078014184397,0.1907894736842105
283,1029.078014184397,0.19736842105263153
284,1031.8754925137905,0.19736842105263153
285,1031.8754925137905,0.20394736842105265
286,1034.6729708431835,0.20394736842105265
287,1034.6729708431835,0.21052631578947367
288,1034.6729708431835,0.2171052631578947
289,1037.470449172577,0.2171052631578947
290,1040.26792750197,0.2171052631578947
291,1043.0654058313635,0.2171052631578947
292,1045.8628841607565,0.2171052631578947
293,1048.6603624901495,0.2171052631578947
294,1051.457840819543,0.21052631578947367
295,1051.457840819543,0.2171052631578947
296,1054.255319148936,0.21052631578947367
297,1057.0527974783295,0.21052631578947367
298,1059.8502758077225,0.20394736842105265
299,1059.8502758077225,0.21052631578947367
300,1062.647754137116,0.20394736842105265
301,1065.445232466509,0.20394736842105265
302,1068.2427107959024,0.20394736842105265
303,1068.2427107959024,0.21052631578947367
304,1071.0401891252955,0.21052631578947367
305,1073.837667454689,0.2171052631578947
306,1073.837667454689,0.21052631578947367
307,1076.635145784082,0.2171052631578947
308,1079.432624113475,0.2171052631578947
309,1082.2301024428684,0.2171052631578947
310,1085.0275807722614,0.2171052631578947
311,1087.825059101655,0.21052631578947367
312,1087.825059101655,0.2171052631578947
313,1090.622537431048,0.21052631578947367
314,1093.4200157604414,0.21052631578947367
315,1096.2174940898344,0.20394736842105265
316,1096.2174940898344,0.21052631578947367
317,1099.014972419228,0.20394736842105265
318,1101.812450748621,0.20394736842105265
319,1104.6099290780144,0.21052631578947367
320,1104.6099290780144,0.2171052631578947
321,1104.6099290780144,0.20394736842105265
322,1107.4074074074074,0.2171052631578947
323,1110.2048857368004,0.2171052631578947
324,1113.0023640661939,0.2171052631578947
325,1115.799842395587,0.2171052631578947
326,1118.5973207249804,0.2171052631578947
327,1121.3947990543734,0.2171052631578947
328,1121.3947990543734,0.22368421052631582
329,1124.1922773837669,0.22368421052631582
330,1126.9897557131599,0.22368421052631582
331,1126.9897557131599,0.23026315789473684
332,1129.7872340425533,0.23026315789473684
333,1129.7872340425533,0.23684210526315785
334,1129.7872340425533,0.24342105263157898
335,1132.5847123719464,0.25
336,1132.5847123719464,0.24342105263157898
337,1132.5847123719464,0.256578947368421
338,1135.3821907013398,0.2763157894736842
339,1135.3821907013398,0.26973684210526316
340,1135.3821907013398,0.26315789473684215
341,1135.3821907013398,0.256578947368421
342,1135.3821907013398,0.2828947368421053
343,1138.1796690307328,0.29605263157894735
344,1138.1796690307328,0.2894736842105263
345,1138.1796690307328,0.2828947368421053
346,1140.9771473601263,0.3092105263157895
347,1140.9771473601263,0.3026315789473685
348,1140.9771473601263,0.29605263157894735
349,1140.9771473601263,0.3157894736842105
350,1143.7746256895193,0.3157894736842105
351,1143.7746256895193,0.32894736842105265
352,1143.7746256895193,0.3223684210526315
353,1143.7746256895193,0.3355263157894737
354,1146.5721040189123,0.3355263157894737
355,1146.5721040189123,0.3421052631578947
356,1146.5721040189123,0.3486842105263158
357,1146.5721040189123,0.35526315789473684
358,1146.5721040189123,0.368421052631579
359,1146.5721040189123,0.36184210526315785
360,1149.3695823483058,0.39473684210526316
361,1149.3695823483058,0.38815789473684215
362,1149.3695823483058,0.368421052631579
363,1149.3695823483058,0.375
364,1149.3695823483058,0.381578947368421
365,1152.1670606776988,0.4013157894736842
366,1152.1670606776988,0.42105263157894735
367,1152.1670606776988,0.4276315789473685
368,1152.1670606776988,0.4078947368421053
369,1152.1670606776988,0.4342105263157895
370,1152.1670606776988,0.39473684210526316
371,1152.1670606776988,0.4144736842105263
372,1154.9645390070923,0.45394736842105265
373,1154.9645390070923,0.4342105263157895
374,1154.9645390070923,0.4407894736842105
375,1154.9645390070923,0.4473684210526315
376,1157.7620173364853,0.45394736842105265
377,1157.7620173364853,0.4605263157894737
378,1157.7620173364853,0.4671052631578947
379,1160.5594956658788,0.4736842105263158
380,1160.5594956658788,0.48026315789473684
381,1160.5594956658788,0.4671052631578947
382,1160.5594956658788,0.48684210526315785
383,1163.3569739952718,0.493421052631579
384,1163.3569739952718,0.48684210526315785
385,1166.1544523246653,0.493421052631579
386,1168.9519306540583,0.493421052631579
387,1171.7494089834518,0.48684210526315785
388,1171.7494089834518,0.493421052631579
389,1174.5468873128448,0.48026315789473684
390,1174.5468873128448,0.48684210526315785
391,1177.3443656422378,0.45394736842105265
392,1177.3443656422378,0.4605263157894737
393,1177.3443656422378,0.4736842105263158
394,1177.3443656422378,0.4671052631578947
395,1177.3443656422378,0.48026315789473684
396,1180.1418439716313,0.4407894736842105
397,1180.1418439716313,0.45394736842105265
398,1180.1418439716313,0.4473684210526315
399,1182.9393223010243,0.4342105263157895
400,1182.9393223010243,0.4407894736842105
401,1185.7368006304177,0.4342105263157895
402,1185.7368006304177,0.4276315789473685
403,1185.7368006304177,0.4013157894736842
404,1185.7368006304177,0.42105263157894735
405,1185.7368006304177,0.4144736842105263
406,1185.7368006304177,0.4078947368421053
407,1188.5342789598108,0.381578947368421
408,1188.5342789598108,0.39473684210526316
409,1188.5342789598108,0.4013157894736842
410,1188.5342789598108,0.38815789473684215
411,1191.3317572892042,0.375
412,1191.3317572892042,0.36184210526315785
413,1191.3317572892042,0.381578947368421
414,1191.3317572892042,0.3486842105263158
415,1191.3317572892042,0.368421052631579
416,1191.3317572892042,0.35526315789473684
417,1194.1292356185972,0.3355263157894737
418,1194.1292356185972,0.3486842105263158
419,1194.1292356185972,0.3421052631578947
420,1196.9267139479907,0.3092105263157895
421,1196.9267139479907,0.3355263157894737
422,1196.9267139479907,0.3223684210526315
423,1196.9267139479907,0.32894736842105265
424,1196.9267139479907,0.3157894736842105
425,1196.9267139479907,0.3026315789473685
426,1199.7241922773837,0.3026315789473685
427,1199.7241922773837,0.29605263157894735
428,1199.7241922773837,0.2894736842105263
429,1202.5216706067772,0.2894736842105263
430,1202.5216706067772,0.2828947368421053
431,1202.5216706067772,0.2763157894736842
432,1205.3191489361702,0.2763157894736842
433,1205.3191489361702,0.26973684210526316
434,1205.3191489361702,0.26315789473684215
435,1208.1166272655632,0.26315789473684215
436,1208.1166272655632,0.256578947368421
437,1210.9141055949567,0.256578947368421
438,1213.7115839243497,0.256578947368421
439,1216.5090622537432,0.25
440,1216.5090622537432,0.256578947368421
441,1219.3065405831362,0.25
442,1222.1040189125297,0.256578947368421
443,1222.1040189125297,0.25
444,1224.9014972419227,0.26315789473684215
445,1224.9014972419227,0.256578947368421
446,1227.6989755713162,0.26973684210526316
447,1227.6989755713162,0.26315789473684215
448,1230.4964539007092,0.26973684210526316
449,1233.2939322301027,0.26973684210526316
450,1233.2939322301027,0.2763157894736842
451,1236.0914105594957,0.2763157894736842
452,1238.8888888888887,0.2763157894736842
453,1241.6863672182822,0.26973684210526316
454,1241.6863672182822,0.2763157894736842
455,1244.4838455476752,0.26973684210526316
456,1247.2813238770686,0.26315789473684215
457,1247.2813238770686,0.256578947368421
458,1247.2813238770686,0.26973684210526316
459,1250.0788022064617,0.256578947368421
460,1250.0788022064617,0.25
461,1252.8762805358551,0.24342105263157898
462,1252.8762805358551,0.25
463,1255.6737588652481,0.24342105263157898
464,1258.4712371946416,0.24342105263157898
465,1261.2687155240346,0.24342105263157898
466,1264.066193853428,0.24342105263157898
467,1266.8636721828211,0.24342105263157898
