,wavenumbers,absorbance
0,452.797478329393,0.02631578947368418
1,455.5949566587865,0.02631578947368418
2,458.3924349881795,0.02631578947368418
3,461.189913317573,0.02631578947368418
4,463.987391646966,0.02631578947368418
5,463.987391646966,0.03289473684210531
6,466.78486997635946,0.03289473684210531
7,469.5823483057525,0.02631578947368418
8,469.5823483057525,0.03289473684210531
9,472.37982663514595,0.03289473684210531
10,472.37982663514595,0.02631578947368418
11,475.17730496453896,0.03289473684210531
12,477.97478329393243,0.02631578947368418
13,477.97478329393243,0.03289473684210531
14,480.77226162332545,0.02631578947368418
15,483.56973995271846,0.02631578947368418
16,486.36721828211193,0.02631578947368418
17,489.16469661150495,0.02631578947368418
18,491.9621749408984,0.02631578947368418
19,494.75965327029144,0.02631578947368418
20,497.5571315996849,0.019736842105263164
21,497.5571315996849,0.02631578947368418
22,500.3546099290779,0.019736842105263164
23,503.1520882584714,0.019736842105263164
24,505.9495665878644,0.019736842105263164
25,508.7470449172579,0.019736842105263164
26,511.5445232466509,0.019736842105263164
27,514.3420015760439,0.019736842105263164
28,517.1394799054374,0.019736842105263164
29,519.9369582348304,0.019736842105263164
30,522.7344365642239,0.019736842105263164
31,525.5319148936169,0.019736842105263164
32,528.3293932230104,0.019736842105263164
33,531.1268715524034,0.019736842105263164
34,531.1268715524034,0.02631578947368418
35,533.9243498817968,0.02631578947368418
36,536.7218282111899,0.03289473684210531
37,536.7218282111899,0.02631578947368418
38,539.5193065405833,0.03947368421052633
39,539.5193065405833,0.03289473684210531
40,542.3167848699763,0.03947368421052633
41,545.1142631993694,0.03947368421052633
42,545.1142631993694,0.046052631578947345
43,547.9117415287628,0.046052631578947345
44,547.9117415287628,0.052631578947368474
45,550.7092198581558,0.052631578947368474
46,553.5066981875493,0.052631578947368474
47,556.3041765169423,0.052631578947368474
48,556.3041765169423,0.05921052631578949
49,559.1016548463358,0.052631578947368474
50,559.1016548463358,0.05921052631578949
51,561.8991331757288,0.05921052631578949
52,561.8991331757288,0.052631578947368474
53,564.6966115051223,0.052631578947368474
54,567.4940898345153,0.052631578947368474
55,570.2915681639088,0.052631578947368474
56,573.0890464933018,0.052631578947368474
57,573.0890464933018,0.046052631578947345
58,575.8865248226948,0.046052631578947345
59,578.6840031520883,0.046052631578947345
60,581.4814814814813,0.046052631578947345
61,581.4814814814813,0.03947368421052633
62,584.2789598108748,0.03947368421052633
63,587.0764381402678,0.03947368421052633
64,589.8739164696613,0.03289473684210531
65,589.8739164696613,0.03947368421052633
66,592.6713947990543,0.03289473684210531
67,595.4688731284477,0.03289473684210531
68,598.2663514578408,0.03289473684210531
69,601.0638297872342,0.03289473684210531
70,601.0638297872342,0.02631578947368418
71,603.8613081166272,0.02631578947368418
72,606.6587864460207,0.02631578947368418
73,609.4562647754137,0.02631578947368418
74,612.2537431048067,0.02631578947368418
75,615.0512214342002,0.02631578947368418
76,617.8486997635932,0.02631578947368418
77,620.6461780929867,0.02631578947368418
78,620.6461780929867,0.019736842105263164
79,623.4436564223797,0.019736842105263164
80,626.2411347517732,0.019736842105263164
81,629.0386130811662,0.019736842105263164
82,631.8360914105597,0.019736842105263164
83,634.6335697399527,0.013157894736842146
84,634.6335697399527,0.019736842105263164
85,637.4310480693462,0.019736842105263164
86,637.4310480693462,0.013157894736842146
87,640.2285263987392,0.019736842105263164
88,643.0260047281322,0.019736842105263164
89,645.8234830575257,0.02631578947368418
90,645.8234830575257,0.019736842105263164
91,648.6209613869187,0.02631578947368418
92,648.6209613869187,0.03289473684210531
93,651.4184397163122,0.03289473684210531
94,651.4184397163122,0.046052631578947345
95,651.4184397163122,0.052631578947368474
96,651.4184397163122,0.06578947368421051
97,651.4184397163122,0.08552631578947367
98,651.4184397163122,0.07236842105263153
99,651.4184397163122,0.07894736842105265
100,651.4184397163122,0.03947368421052633
101,651.4184397163122,0.05921052631578949
102,654.2159180457052,0.08552631578947367
103,654.2159180457052,0.09210526315789469
104,654.2159180457052,0.09868421052631582
105,657.0133963750986,0.05921052631578949
106,657.0133963750986,0.08552631578947367
107,657.0133963750986,0.07894736842105265
108,657.0133963750986,0.09210526315789469
109,657.0133963750986,0.09868421052631582
110,657.0133963750986,0.06578947368421051
111,657.0133963750986,0.052631578947368474
112,657.0133963750986,0.07236842105263153
113,659.8108747044917,0.046052631578947345
114,659.8108747044917,0.03947368421052633
115,659.8108747044917,0.052631578947368474
116,662.6083530338851,0.03947368421052633
117,662.6083530338851,0.03289473684210531
118,665.4058313632781,0.03289473684210531
119,668.2033096926716,0.03289473684210531
120,668.2033096926716,0.02631578947368418
121,671.0007880220646,0.02631578947368418
122,673.7982663514576,0.03289473684210531
123,673.7982663514576,0.02631578947368418
124,676.5957446808511,0.03289473684210531
125,679.3932230102441,0.03289473684210531
126,682.1907013396376,0.03289473684210531
127,682.1907013396376,0.03947368421052633
128,684.9881796690306,0.046052631578947345
129,684.9881796690306,0.052631578947368474
130,684.9881796690306,0.03947368421052633
131,687.7856579984241,0.05921052631578949
132,687.7856579984241,0.052631578947368474
133,687.7856579984241,0.07236842105263153
134,687.7856579984241,0.06578947368421051
135,687.7856579984241,0.07894736842105265
136,690.5831363278171,0.09868421052631582
137,690.5831363278171,0.09210526315789469
138,690.5831363278171,0.07894736842105265
139,690.5831363278171,0.08552631578947367
140,690.5831363278171,0.10526315789473684
141,693.3806146572106,0.20394736842105265
142,693.3806146572106,0.13815789473684215
143,693.3806146572106,0.19736842105263153
144,693.3806146572106,0.13157894736842102
145,693.3806146572106,0.16447368421052633
146,693.3806146572106,0.17763157894736847
147,693.3806146572106,0.11842105263157898
148,693.3806146572106,0.125
149,693.3806146572106,0.1578947368421053
150,693.3806146572106,0.1907894736842105
151,693.3806146572106,0.21052631578947367
152,693.3806146572106,0.10526315789473684
153,693.3806146572106,0.11184210526315785
154,693.3806146572106,0.17105263157894735
155,693.3806146572106,0.1842105263157895
156,693.3806146572106,0.15131578947368418
157,693.3806146572106,0.14473684210526316
158,696.1780929866036,0.24342105263157898
159,696.1780929866036,0.2171052631578947
160,696.1780929866036,0.25
161,696.1780929866036,0.23026315789473684
162,696.1780929866036,0.22368421052631582
163,696.1780929866036,0.23684210526315785
164,696.1780929866036,0.21052631578947367
165,698.9755713159971,0.26315789473684215
166,698.9755713159971,0.256578947368421
167,698.9755713159971,0.25
168,701.7730496453901,0.23684210526315785
169,701.7730496453901,0.256578947368421
170,701.7730496453901,0.25
171,701.7730496453901,0.24342105263157898
172,701.7730496453901,0.23026315789473684
173,704.5705279747831,0.20394736842105265
174,704.5705279747831,0.21052631578947367
175,704.5705279747831,0.22368421052631582
176,704.5705279747831,0.23026315789473684
177,704.5705279747831,0.2171052631578947
178,707.3680063041766,0.15131578947368418
179,707.3680063041766,0.19736842105263153
180,707.3680063041766,0.1842105263157895
181,707.3680063041766,0.1907894736842105
182,707.3680063041766,0.17763157894736847
183,707.3680063041766,0.17105263157894735
184,707.3680063041766,0.16447368421052633
185,707.3680063041766,0.20394736842105265
186,707.3680063041766,0.1578947368421053
187,707.3680063041766,0.14473684210526316
188,710.1654846335696,0.13815789473684215
189,710.1654846335696,0.13157894736842102
190,710.1654846335696,0.14473684210526316
191,710.1654846335696,0.125
192,712.962962962963,0.11184210526315785
193,712.962962962963,0.125
194,712.962962962963,0.11842105263157898
195,715.7604412923561,0.11842105263157898
196,715.7604412923561,0.11184210526315785
197,718.5579196217495,0.11842105263157898
198,718.5579196217495,0.13157894736842102
199,718.5579196217495,0.125
200,721.3553979511425,0.13815789473684215
201,721.3553979511425,0.13157894736842102
202,724.152876280536,0.13815789473684215
203,724.152876280536,0.1578947368421053
204,724.152876280536,0.14473684210526316
205,724.152876280536,0.15131578947368418
206,726.950354609929,0.1578947368421053
207,729.7478329393225,0.16447368421052633
208,729.7478329393225,0.1578947368421053
209,732.5453112687155,0.1842105263157895
210,732.5453112687155,0.17763157894736847
211,732.5453112687155,0.17105263157894735
212,732.5453112687155,0.1907894736842105
213,732.5453112687155,0.16447368421052633
214,735.3427895981085,0.19736842105263153
215,735.3427895981085,0.22368421052631582
216,735.3427895981085,0.20394736842105265
217,735.3427895981085,0.2171052631578947
218,735.3427895981085,0.1907894736842105
219,735.3427895981085,0.21052631578947367
220,738.140267927502,0.29605263157894735
221,738.140267927502,0.26973684210526316
222,738.140267927502,0.2828947368421053
223,738.140267927502,0.2894736842105263
224,738.140267927502,0.26315789473684215
225,738.140267927502,0.256578947368421
226,738.140267927502,0.25
227,738.140267927502,0.23026315789473684
228,738.140267927502,0.24342105263157898
229,738.140267927502,0.2763157894736842
230,738.140267927502,0.23684210526315785
231,738.140267927502,0.22368421052631582
232,740.937746256895,0.29605263157894735
233,740.937746256895,0.3026315789473685
234,740.937746256895,0.3092105263157895
235,740.937746256895,0.3157894736842105
236,740.937746256895,0.3223684210526315
237,743.7352245862885,0.35526315789473684
238,743.7352245862885,0.32894736842105265
239,743.7352245862885,0.3355263157894737
240,743.7352245862885,0.3421052631578947
241,743.7352245862885,0.3223684210526315
242,743.7352245862885,0.3486842105263158
243,746.5327029156815,0.35526315789473684
244,746.5327029156815,0.3486842105263158
245,749.330181245075,0.3486842105263158
246,749.330181245075,0.3157894736842105
247,749.330181245075,0.3223684210526315
248,749.330181245075,0.3421052631578947
249,749.330181245075,0.3355263157894737
250,749.330181245075,0.32894736842105265
251,752.127659574468,0.29605263157894735
252,752.127659574468,0.2894736842105263
253,752.127659574468,0.3157894736842105
254,752.127659574468,0.3092105263157895
255,752.127659574468,0.3026315789473685
256,754.9251379038615,0.2894736842105263
257,754.9251379038615,0.256578947368421
258,754.9251379038615,0.26315789473684215
259,754.9251379038615,0.24342105263157898
260,754.9251379038615,0.2763157894736842
261,754.9251379038615,0.2828947368421053
262,754.9251379038615,0.23684210526315785
263,754.9251379038615,0.25
264,754.9251379038615,0.26973684210526316
265,757.7226162332545,0.2171052631578947
266,757.7226162332545,0.22368421052631582
267,757.7226162332545,0.23026315789473684
268,757.7226162332545,0.23684210526315785
269,760.520094562648,0.21052631578947367
270,760.520094562648,0.1907894736842105
271,760.520094562648,0.2171052631578947
272,760.520094562648,0.20394736842105265
273,760.520094562648,0.19736842105263153
274,763.317572892041,0.1907894736842105
275,763.317572892041,0.1578947368421053
276,763.317572892041,0.17105263157894735
277,763.317572892041,0.1842105263157895
278,763.317572892041,0.13815789473684215
279,763.317572892041,0.16447368421052633
280,763.317572892041,0.13157894736842102
281,763.317572892041,0.14473684210526316
282,763.317572892041,0.15131578947368418
283,763.317572892041,0.17763157894736847
284,766.115051221434,0.13157894736842102
285,766.115051221434,0.11842105263157898
286,766.115051221434,0.11184210526315785
287,766.115051221434,0.125
288,768.9125295508275,0.09868421052631582
289,768.9125295508275,0.11184210526315785
290,768.9125295508275,0.09210526315789469
291,768.9125295508275,0.10526315789473684
292,771.7100078802205,0.09210526315789469
293,774.507486209614,0.09868421052631582
294,774.507486209614,0.11184210526315785
295,774.507486209614,0.10526315789473684
296,774.507486209614,0.09210526315789469
297,777.304964539007,0.11842105263157898
298,777.304964539007,0.11184210526315785
299,780.1024428684004,0.11842105263157898
300,780.1024428684004,0.125
301,782.8999211977934,0.125
302,782.8999211977934,0.11842105263157898
303,785.6973995271869,0.11842105263157898
304,785.6973995271869,0.11184210526315785
305,788.4948778565799,0.10526315789473684
306,788.4948778565799,0.11184210526315785
307,788.4948778565799,0.09210526315789469
308,788.4948778565799,0.08552631578947367
309,788.4948778565799,0.09868421052631582
310,791.2923561859734,0.08552631578947367
311,791.2923561859734,0.07236842105263153
312,791.2923561859734,0.07894736842105265
313,794.0898345153664,0.06578947368421051
314,794.0898345153664,0.07236842105263153
315,796.8873128447594,0.06578947368421051
316,799.6847911741529,0.07236842105263153
317,799.6847911741529,0.06578947368421051
318,802.4822695035459,0.07894736842105265
319,802.4822695035459,0.07236842105263153
320,805.2797478329394,0.08552631578947367
321,805.2797478329394,0.07894736842105265
322,805.2797478329394,0.09210526315789469
323,808.0772261623324,0.09210526315789469
324,808.0772261623324,0.09868421052631582
325,810.8747044917259,0.09868421052631582
326,810.8747044917259,0.11184210526315785
327,810.8747044917259,0.10526315789473684
328,813.6721828211189,0.11184210526315785
329,816.4696611505124,0.09868421052631582
330,816.4696611505124,0.10526315789473684
331,816.4696611505124,0.11184210526315785
332,819.2671394799054,0.09868421052631582
333,819.2671394799054,0.07894736842105265
334,819.2671394799054,0.09210526315789469
335,819.2671394799054,0.08552631578947367
336,819.2671394799054,0.07236842105263153
337,822.0646178092989,0.07236842105263153
338,822.0646178092989,0.06578947368421051
339,824.8620961386919,0.05921052631578949
340,824.8620961386919,0.052631578947368474
341,824.8620961386919,0.06578947368421051
342,827.6595744680849,0.052631578947368474
343,827.6595744680849,0.046052631578947345
344,830.4570527974784,0.046052631578947345
345,833.2545311268714,0.03947368421052633
346,833.2545311268714,0.046052631578947345
347,836.0520094562648,0.03947368421052633
348,838.8494877856579,0.03947368421052633
349,841.6469661150513,0.03947368421052633
350,844.4444444444443,0.03947368421052633
351,847.2419227738378,0.03947368421052633
352,850.0394011032308,0.03947368421052633
353,852.8368794326243,0.03947368421052633
354,855.6343577620173,0.03947368421052633
355,858.4318360914103,0.03947368421052633
356,858.4318360914103,0.046052631578947345
357,861.2293144208038,0.046052631578947345
358,864.0267927501968,0.046052631578947345
359,866.8242710795903,0.046052631578947345
360,866.8242710795903,0.03947368421052633
361,869.6217494089833,0.03947368421052633
362,872.4192277383768,0.03947368421052633
363,875.2167060677698,0.03947368421052633
364,875.2167060677698,0.046052631578947345
365,878.0141843971633,0.046052631578947345
366,880.8116627265563,0.03947368421052633
367,880.8116627265563,0.046052631578947345
368,883.6091410559497,0.03947368421052633
369,886.4066193853428,0.03947368421052633
370,886.4066193853428,0.03289473684210531
371,889.2040977147362,0.03289473684210531
372,892.0015760441293,0.03289473684210531
373,894.7990543735223,0.03289473684210531
374,897.5965327029157,0.03289473684210531
375,900.3940110323088,0.03289473684210531
376,903.1914893617022,0.03289473684210531
377,905.9889676910952,0.03289473684210531
378,908.7864460204887,0.03289473684210531
379,911.5839243498817,0.03289473684210531
380,911.5839243498817,0.02631578947368418
381,914.3814026792752,0.02631578947368418
382,917.1788810086682,0.02631578947368418
383,919.9763593380617,0.02631578947368418
384,922.7738376674547,0.03289473684210531
385,922.7738376674547,0.02631578947368418
386,925.5713159968477,0.03289473684210531
387,928.3687943262412,0.03947368421052633
388,928.3687943262412,0.03289473684210531
389,931.1662726556342,0.03947368421052633
390,931.1662726556342,0.046052631578947345
391,933.9637509850277,0.046052631578947345
392,936.7612293144207,0.046052631578947345
393,939.5587076438142,0.046052631578947345
394,942.3561859732072,0.046052631578947345
395,945.1536643026006,0.046052631578947345
396,945.1536643026006,0.03947368421052633
397,947.9511426319937,0.03289473684210531
398,947.9511426319937,0.03947368421052633
399,950.7486209613871,0.03289473684210531
400,953.5460992907801,0.03289473684210531
401,956.3435776201732,0.03289473684210531
402,959.1410559495666,0.03947368421052633
403,959.1410559495666,0.03289473684210531
404,961.9385342789597,0.03947368421052633
405,964.7360126083531,0.03947368421052633
406,967.5334909377461,0.03947368421052633
407,970.3309692671396,0.03947368421052633
408,973.1284475965326,0.03289473684210531
409,973.1284475965326,0.03947368421052633
410,975.9259259259261,0.03289473684210531
411,978.7234042553191,0.03289473684210531
412,981.5208825847126,0.03289473684210531
413,984.3183609141056,0.03947368421052633
414,984.3183609141056,0.03289473684210531
415,987.1158392434986,0.03947368421052633
416,989.9133175728921,0.03947368421052633
417,992.7107959022851,0.03947368421052633
418,995.5082742316786,0.046052631578947345
419,995.5082742316786,0.03947368421052633
420,998.3057525610716,0.046052631578947345
421,1001.103230890465,0.046052631578947345
422,1003.9007092198581,0.052631578947368474
423,1003.9007092198581,0.046052631578947345
424,1006.6981875492515,0.052631578947368474
425,1009.4956658786446,0.05921052631578949
426,1009.4956658786446,0.052631578947368474
427,1009.4956658786446,0.06578947368421051
428,1012.293144208038,0.06578947368421051
429,1012.293144208038,0.07236842105263153
430,1015.090622537431,0.07894736842105265
431,1015.090622537431,0.07236842105263153
432,1017.8881008668241,0.07894736842105265
433,1017.8881008668241,0.08552631578947367
434,1017.8881008668241,0.09210526315789469
435,1020.6855791962175,0.09210526315789469
436,1023.4830575256105,0.09210526315789469
437,1026.280535855004,0.09210526315789469
438,1029.078014184397,0.09210526315789469
439,1029.078014184397,0.08552631578947367
440,1031.8754925137905,0.08552631578947367
441,1031.8754925137905,0.07894736842105265
442,1034.6729708431835,0.07894736842105265
443,1037.470449172577,0.07894736842105265
444,1037.470449172577,0.07236842105263153
445,1040.26792750197,0.07236842105263153
446,1043.0654058313635,0.07236842105263153
447,1045.8628841607565,0.07236842105263153
448,1048.6603624901495,0.07236842105263153
449,1051.457840819543,0.07236842105263153
450,1051.457840819543,0.07894736842105265
451,1054.255319148936,0.08552631578947367
452,1054.255319148936,0.07894736842105265
453,1057.0527974783295,0.08552631578947367
454,1057.0527974783295,0.09210526315789469
455,1059.8502758077225,0.09210526315789469
456,1059.8502758077225,0.09868421052631582
457,1062.647754137116,0.09210526315789469
458,1065.445232466509,0.09210526315789469
459,1068.2427107959024,0.09868421052631582
460,1068.2427107959024,0.09210526315789469
461,1071.0401891252955,0.11184210526315785
462,1071.0401891252955,0.10526315789473684
463,1071.0401891252955,0.09868421052631582
464,1073.837667454689,0.13815789473684215
465,1073.837667454689,0.125
466,1073.837667454689,0.11842105263157898
467,1073.837667454689,0.14473684210526316
468,1073.837667454689,0.11184210526315785
469,1073.837667454689,0.13157894736842102
470,1076.635145784082,0.1578947368421053
