,wavenumbers,absorbance
0,452.797478329393,0.02631578947368418
1,452.797478329393,0.019736842105263164
2,455.5949566587865,0.019736842105263164
3,455.5949566587865,0.02631578947368418
4,458.3924349881795,0.019736842105263164
5,458.3924349881795,0.02631578947368418
6,461.189913317573,0.03289473684210531
7,461.189913317573,0.02631578947368418
8,463.987391646966,0.02631578947368418
9,463.987391646966,0.03289473684210531
10,466.78486997635946,0.02631578947368418
11,469.5823483057525,0.02631578947368418
12,469.5823483057525,0.019736842105263164
13,472.37982663514595,0.019736842105263164
14,475.17730496453896,0.019736842105263164
15,477.97478329393243,0.019736842105263164
16,480.77226162332545,0.019736842105263164
17,483.56973995271846,0.019736842105263164
18,486.36721828211193,0.019736842105263164
19,489.16469661150495,0.019736842105263164
20,491.9621749408984,0.019736842105263164
21,494.75965327029144,0.019736842105263164
22,497.5571315996849,0.019736842105263164
23,500.3546099290779,0.019736842105263164
24,503.1520882584714,0.019736842105263164
25,505.9495665878644,0.019736842105263164
26,508.7470449172579,0.019736842105263164
27,511.5445232466509,0.019736842105263164
28,514.3420015760439,0.019736842105263164
29,517.1394799054374,0.019736842105263164
30,519.9369582348304,0.019736842105263164
31,522.7344365642239,0.019736842105263164
32,525.5319148936169,0.019736842105263164
33,528.3293932230104,0.019736842105263164
34,531.1268715524034,0.019736842105263164
35,533.9243498817968,0.019736842105263164
36,536.7218282111899,0.019736842105263164
37,539.5193065405833,0.019736842105263164
38,542.3167848699763,0.019736842105263164
39,545.1142631993694,0.019736842105263164
40,547.9117415287628,0.019736842105263164
41,550.7092198581558,0.019736842105263164
42,553.5066981875493,0.019736842105263164
43,556.3041765169423,0.019736842105263164
44,559.1016548463358,0.019736842105263164
45,561.8991331757288,0.019736842105263164
46,564.6966115051223,0.019736842105263164
47,567.4940898345153,0.019736842105263164
48,570.2915681639088,0.019736842105263164
49,573.0890464933018,0.019736842105263164
50,575.8865248226948,0.019736842105263164
51,578.6840031520883,0.019736842105263164
52,581.4814814814813,0.019736842105263164
53,584.2789598108748,0.019736842105263164
54,587.0764381402678,0.019736842105263164
55,589.8739164696613,0.019736842105263164
56,592.6713947990543,0.019736842105263164
57,595.4688731284477,0.019736842105263164
58,598.2663514578408,0.019736842105263164
59,601.0638297872342,0.019736842105263164
60,603.8613081166272,0.019736842105263164
61,606.6587864460207,0.019736842105263164
62,609.4562647754137,0.019736842105263164
63,612.2537431048067,0.019736842105263164
64,615.0512214342002,0.019736842105263164
65,617.8486997635932,0.019736842105263164
66,620.6461780929867,0.019736842105263164
67,623.4436564223797,0.019736842105263164
68,626.2411347517732,0.019736842105263164
69,629.0386130811662,0.019736842105263164
70,631.8360914105597,0.019736842105263164
71,634.6335697399527,0.019736842105263164
72,637.4310480693462,0.019736842105263164
73,640.2285263987392,0.019736842105263164
74,643.0260047281322,0.019736842105263164
75,645.8234830575257,0.019736842105263164
76,648.6209613869187,0.019736842105263164
77,651.4184397163122,0.019736842105263164
78,651.4184397163122,0.013157894736842146
79,654.2159180457052,0.019736842105263164
80,657.0133963750986,0.019736842105263164
81,659.8108747044917,0.019736842105263164
82,662.6083530338851,0.019736842105263164
83,665.4058313632781,0.019736842105263164
84,668.2033096926716,0.019736842105263164
85,671.0007880220646,0.019736842105263164
86,673.7982663514576,0.019736842105263164
87,676.5957446808511,0.019736842105263164
88,679.3932230102441,0.019736842105263164
89,682.1907013396376,0.019736842105263164
90,684.9881796690306,0.019736842105263164
91,687.7856579984241,0.02631578947368418
92,687.7856579984241,0.03289473684210531
93,687.7856579984241,0.019736842105263164
94,690.5831363278171,0.03947368421052633
95,690.5831363278171,0.03289473684210531
96,693.3806146572106,0.052631578947368474
97,693.3806146572106,0.046052631578947345
98,693.3806146572106,0.03947368421052633
99,696.1780929866036,0.052631578947368474
100,696.1780929866036,0.046052631578947345
101,696.1780929866036,0.03947368421052633
102,698.9755713159971,0.03947368421052633
103,698.9755713159971,0.03289473684210531
104,701.7730496453901,0.02631578947368418
105,701.7730496453901,0.03289473684210531
106,704.5705279747831,0.02631578947368418
107,707.3680063041766,0.02631578947368418
108,710.1654846335696,0.02631578947368418
109,712.962962962963,0.02631578947368418
110,715.7604412923561,0.02631578947368418
111,718.5579196217495,0.02631578947368418
112,721.3553979511425,0.02631578947368418
113,721.3553979511425,0.03289473684210531
114,724.152876280536,0.03289473684210531
115,724.152876280536,0.03947368421052633
116,726.950354609929,0.03289473684210531
117,729.7478329393225,0.03289473684210531
118,729.7478329393225,0.02631578947368418
119,732.5453112687155,0.02631578947368418
120,735.3427895981085,0.02631578947368418
121,738.140267927502,0.02631578947368418
122,740.937746256895,0.02631578947368418
123,743.7352245862885,0.02631578947368418
124,746.5327029156815,0.02631578947368418
125,749.330181245075,0.02631578947368418
126,752.127659574468,0.02631578947368418
127,754.9251379038615,0.02631578947368418
128,754.9251379038615,0.019736842105263164
129,757.7226162332545,0.019736842105263164
130,760.520094562648,0.019736842105263164
131,763.317572892041,0.019736842105263164
132,766.115051221434,0.019736842105263164
133,768.9125295508275,0.019736842105263164
134,771.7100078802205,0.019736842105263164
135,774.507486209614,0.019736842105263164
136,777.304964539007,0.019736842105263164
137,780.1024428684004,0.019736842105263164
138,782.8999211977934,0.019736842105263164
139,785.6973995271869,0.019736842105263164
140,788.4948778565799,0.019736842105263164
141,791.2923561859734,0.019736842105263164
142,794.0898345153664,0.019736842105263164
143,796.8873128447594,0.019736842105263164
144,799.6847911741529,0.019736842105263164
145,802.4822695035459,0.019736842105263164
146,805.2797478329394,0.02631578947368418
147,805.2797478329394,0.019736842105263164
148,808.0772261623324,0.02631578947368418
149,810.8747044917259,0.02631578947368418
150,813.6721828211189,0.02631578947368418
151,816.4696611505124,0.02631578947368418
152,819.2671394799054,0.03289473684210531
153,819.2671394799054,0.02631578947368418
154,822.0646178092989,0.03289473684210531
155,824.8620961386919,0.03289473684210531
156,827.6595744680849,0.03289473684210531
157,830.4570527974784,0.03289473684210531
158,833.2545311268714,0.03289473684210531
159,836.0520094562648,0.03289473684210531
160,838.8494877856579,0.03289473684210531
161,841.6469661150513,0.03289473684210531
162,841.6469661150513,0.03947368421052633
163,844.4444444444443,0.03947368421052633
164,847.2419227738378,0.03947368421052633
165,850.0394011032308,0.03947368421052633
166,852.8368794326243,0.03947368421052633
167,855.6343577620173,0.03947368421052633
168,858.4318360914103,0.03947368421052633
169,861.2293144208038,0.03947368421052633
170,864.0267927501968,0.03947368421052633
171,866.8242710795903,0.03947368421052633
172,869.6217494089833,0.03947368421052633
173,872.4192277383768,0.03947368421052633
174,875.2167060677698,0.03947368421052633
175,878.0141843971633,0.03947368421052633
176,880.8116627265563,0.03947368421052633
177,880.8116627265563,0.046052631578947345
178,883.6091410559497,0.046052631578947345
179,886.4066193853428,0.046052631578947345
180,889.2040977147362,0.046052631578947345
181,892.0015760441293,0.046052631578947345
182,894.7990543735223,0.046052631578947345
183,897.5965327029157,0.046052631578947345
184,900.3940110323088,0.046052631578947345
185,903.1914893617022,0.052631578947368474
186,903.1914893617022,0.046052631578947345
187,905.9889676910952,0.052631578947368474
188,908.7864460204887,0.046052631578947345
189,908.7864460204887,0.052631578947368474
190,911.5839243498817,0.046052631578947345
191,914.3814026792752,0.046052631578947345
192,917.1788810086682,0.046052631578947345
193,919.9763593380617,0.046052631578947345
194,922.7738376674547,0.046052631578947345
195,925.5713159968477,0.046052631578947345
196,928.3687943262412,0.046052631578947345
197,931.1662726556342,0.046052631578947345
198,933.9637509850277,0.046052631578947345
199,933.9637509850277,0.052631578947368474
200,939.5587076438142,0.052631578947368474
201,942.3561859732072,0.052631578947368474
202,945.1536643026006,0.052631578947368474
203,947.9511426319937,0.05921052631578949
204,947.9511426319937,0.052631578947368474
205,950.7486209613871,0.05921052631578949
206,953.5460992907801,0.05921052631578949
207,953.5460992907801,0.07894736842105265
208,953.5460992907801,0.08552631578947367
209,953.5460992907801,0.06578947368421051
210,953.5460992907801,0.07236842105263153
211,956.3435776201732,0.08552631578947367
212,956.3435776201732,0.10526315789473684
213,956.3435776201732,0.09868421052631582
214,956.3435776201732,0.09210526315789469
215,959.1410559495666,0.125
216,959.1410559495666,0.11842105263157898
217,959.1410559495666,0.11184210526315785
218,959.1410559495666,0.10526315789473684
219,961.9385342789597,0.13815789473684215
220,961.9385342789597,0.14473684210526316
221,961.9385342789597,0.15131578947368418
222,961.9385342789597,0.1578947368421053
223,961.9385342789597,0.125
224,961.9385342789597,0.13157894736842102
225,964.7360126083531,0.15131578947368418
226,964.7360126083531,0.1578947368421053
227,967.5334909377461,0.15131578947368418
228,967.5334909377461,0.14473684210526316
229,967.5334909377461,0.13815789473684215
230,967.5334909377461,0.13157894736842102
231,970.3309692671396,0.11842105263157898
232,970.3309692671396,0.13157894736842102
233,970.3309692671396,0.125
234,973.1284475965326,0.11184210526315785
235,973.1284475965326,0.09868421052631582
236,973.1284475965326,0.10526315789473684
237,973.1284475965326,0.11842105263157898
238,973.1284475965326,0.09210526315789469
239,975.9259259259261,0.09210526315789469
240,975.9259259259261,0.08552631578947367
241,978.7234042553191,0.07894736842105265
242,978.7234042553191,0.07236842105263153
243,978.7234042553191,0.08552631578947367
244,981.5208825847126,0.07236842105263153
245,984.3183609141056,0.07236842105263153
246,987.1158392434986,0.06578947368421051
247,987.1158392434986,0.07236842105263153
248,989.9133175728921,0.06578947368421051
249,992.7107959022851,0.06578947368421051
250,995.5082742316786,0.06578947368421051
251,998.3057525610716,0.06578947368421051
252,1001.103230890465,0.06578947368421051
253,1003.9007092198581,0.06578947368421051
254,1006.6981875492515,0.06578947368421051
255,1006.6981875492515,0.07236842105263153
256,1009.4956658786446,0.07236842105263153
257,1012.293144208038,0.07236842105263153
258,1012.293144208038,0.07894736842105265
259,1015.090622537431,0.07894736842105265
260,1017.8881008668241,0.07894736842105265
261,1020.6855791962175,0.07894736842105265
262,1023.4830575256105,0.07894736842105265
263,1026.280535855004,0.07894736842105265
264,1029.078014184397,0.07894736842105265
265,1031.8754925137905,0.07894736842105265
266,1034.6729708431835,0.07894736842105265
267,1034.6729708431835,0.07236842105263153
268,1037.470449172577,0.07236842105263153
269,1040.26792750197,0.07236842105263153
270,1043.0654058313635,0.07236842105263153
271,1045.8628841607565,0.07236842105263153
272,1048.6603624901495,0.07236842105263153
273,1051.457840819543,0.07236842105263153
274,1054.255319148936,0.07236842105263153
275,1057.0527974783295,0.07236842105263153
276,1059.8502758077225,0.07236842105263153
277,1062.647754137116,0.07236842105263153
278,1065.445232466509,0.07236842105263153
279,1068.2427107959024,0.07236842105263153
280,1071.0401891252955,0.07236842105263153
281,1073.837667454689,0.07236842105263153
282,1076.635145784082,0.07236842105263153
283,1076.635145784082,0.06578947368421051
284,1079.432624113475,0.06578947368421051
285,1082.2301024428684,0.06578947368421051
286,1085.0275807722614,0.06578947368421051
287,1087.825059101655,0.06578947368421051
288,1090.622537431048,0.06578947368421051
289,1093.4200157604414,0.06578947368421051
290,1096.2174940898344,0.06578947368421051
291,1099.014972419228,0.06578947368421051
292,1101.812450748621,0.06578947368421051
293,1104.6099290780144,0.06578947368421051
294,1107.4074074074074,0.06578947368421051
295,1110.2048857368004,0.06578947368421051
296,1113.0023640661939,0.06578947368421051
297,1115.799842395587,0.06578947368421051
298,1118.5973207249804,0.06578947368421051
299,1121.3947990543734,0.06578947368421051
300,1124.1922773837669,0.06578947368421051
301,1126.9897557131599,0.06578947368421051
302,1129.7872340425533,0.06578947368421051
303,1132.5847123719464,0.06578947368421051
304,1135.3821907013398,0.06578947368421051
305,1138.1796690307328,0.06578947368421051
306,1140.9771473601263,0.06578947368421051
307,1143.7746256895193,0.06578947368421051
308,1146.5721040189123,0.06578947368421051
309,1149.3695823483058,0.06578947368421051
310,1152.1670606776988,0.06578947368421051
311,1154.9645390070923,0.06578947368421051
312,1154.9645390070923,0.05921052631578949
313,1157.7620173364853,0.05921052631578949
314,1160.5594956658788,0.05921052631578949
315,1163.3569739952718,0.05921052631578949
316,1166.1544523246653,0.05921052631578949
317,1168.9519306540583,0.05921052631578949
318,1171.7494089834518,0.05921052631578949
319,1174.5468873128448,0.05921052631578949
320,1177.3443656422378,0.05921052631578949
321,1177.3443656422378,0.052631578947368474
322,1180.1418439716313,0.052631578947368474
323,1182.9393223010243,0.052631578947368474
324,1185.7368006304177,0.052631578947368474
325,1188.5342789598108,0.052631578947368474
326,1191.3317572892042,0.052631578947368474
327,1194.1292356185972,0.052631578947368474
328,1196.9267139479907,0.052631578947368474
329,1199.7241922773837,0.052631578947368474
330,1202.5216706067772,0.052631578947368474
331,1205.3191489361702,0.052631578947368474
332,1208.1166272655632,0.052631578947368474
333,1210.9141055949567,0.052631578947368474
334,1213.7115839243497,0.052631578947368474
335,1216.5090622537432,0.052631578947368474
336,1219.3065405831362,0.052631578947368474
337,1222.1040189125297,0.052631578947368474
338,1224.9014972419227,0.052631578947368474
339,1227.6989755713162,0.052631578947368474
340,1230.4964539007092,0.052631578947368474
341,1233.2939322301027,0.052631578947368474
342,1233.2939322301027,0.05921052631578949
343,1236.0914105594957,0.05921052631578949
344,1238.8888888888887,0.05921052631578949
345,1241.6863672182822,0.05921052631578949
346,1244.4838455476752,0.05921052631578949
347,1247.2813238770686,0.05921052631578949
348,1250.0788022064617,0.05921052631578949
349,1252.8762805358551,0.05921052631578949
350,1255.6737588652481,0.05921052631578949
351,1258.4712371946416,0.05921052631578949
352,1261.2687155240346,0.05921052631578949
353,1264.066193853428,0.05921052631578949
354,1266.8636721828211,0.05921052631578949
355,1269.6611505122141,0.05921052631578949
356,1272.4586288416076,0.05921052631578949
357,1275.2561071710006,0.05921052631578949
358,1278.053585500394,0.05921052631578949
359,1280.851063829787,0.05921052631578949
360,1283.6485421591806,0.05921052631578949
361,1286.4460204885736,0.05921052631578949
362,1289.243498817967,0.05921052631578949
363,1292.04097714736,0.05921052631578949
364,1294.8384554767536,0.05921052631578949
365,1297.6359338061466,0.05921052631578949
366,1297.6359338061466,0.06578947368421051
367,1300.4334121355396,0.06578947368421051
368,1303.230890464933,0.06578947368421051
369,1306.028368794326,0.06578947368421051
370,1308.8258471237195,0.06578947368421051
371,1311.6233254531126,0.06578947368421051
372,1314.420803782506,0.06578947368421051
373,1314.420803782506,0.05921052631578949
374,1317.218282111899,0.05921052631578949
375,1320.0157604412925,0.05921052631578949
376,1322.8132387706855,0.05921052631578949
377,1325.610717100079,0.05921052631578949
378,1328.408195429472,0.05921052631578949
379,1331.205673758865,0.05921052631578949
380,1334.0031520882585,0.06578947368421051
381,1334.0031520882585,0.05921052631578949
382,1336.8006304176515,0.06578947368421051
383,1339.598108747045,0.06578947368421051
384,1342.395587076438,0.06578947368421051
385,1345.1930654058315,0.07236842105263153
386,1345.1930654058315,0.06578947368421051
387,1347.9905437352245,0.07236842105263153
388,1350.788022064618,0.07894736842105265
389,1350.788022064618,0.07236842105263153
390,1353.585500394011,0.07894736842105265
391,1356.3829787234044,0.07894736842105265
392,1356.3829787234044,0.08552631578947367
393,1359.1804570527975,0.09868421052631582
394,1359.1804570527975,0.10526315789473684
395,1359.1804570527975,0.08552631578947367
396,1359.1804570527975,0.09210526315789469
397,1361.9779353821905,0.10526315789473684
398,1361.9779353821905,0.11842105263157898
399,1361.9779353821905,0.11184210526315785
400,1364.775413711584,0.13815789473684215
401,1364.775413711584,0.14473684210526316
402,1364.775413711584,0.11842105263157898
403,1364.775413711584,0.15131578947368418
404,1364.775413711584,0.1578947368421053
405,1364.775413711584,0.13157894736842102
406,1364.775413711584,0.125
407,1367.572892040977,0.17763157894736847
408,1367.572892040977,0.16447368421052633
409,1367.572892040977,0.1578947368421053
410,1367.572892040977,0.17105263157894735
411,1370.3703703703704,0.17763157894736847
412,1370.3703703703704,0.1907894736842105
413,1370.3703703703704,0.21052631578947367
414,1370.3703703703704,0.19736842105263153
415,1370.3703703703704,0.1842105263157895
416,1370.3703703703704,0.20394736842105265
417,1373.1678486997635,0.21052631578947367
418,1373.1678486997635,0.20394736842105265
419,1375.965327029157,0.1842105263157895
420,1375.965327029157,0.17763157894736847
421,1375.965327029157,0.16447368421052633
422,1375.965327029157,0.1578947368421053
423,1375.965327029157,0.1907894736842105
424,1375.965327029157,0.20394736842105265
425,1375.965327029157,0.17105263157894735
426,1375.965327029157,0.19736842105263153
427,1378.76280535855,0.15131578947368418
428,1378.76280535855,0.14473684210526316
429,1378.76280535855,0.13815789473684215
430,1378.76280535855,0.1578947368421053
431,1381.5602836879434,0.125
432,1381.5602836879434,0.13815789473684215
433,1381.5602836879434,0.11842105263157898
434,1381.5602836879434,0.11184210526315785
435,1381.5602836879434,0.13157894736842102
436,1384.3577620173364,0.10526315789473684
437,1384.3577620173364,0.11184210526315785
438,1384.3577620173364,0.07236842105263153
439,1384.3577620173364,0.08552631578947367
440,1384.3577620173364,0.09868421052631582
441,1384.3577620173364,0.09210526315789469
442,1384.3577620173364,0.07894736842105265
443,1387.15524034673,0.07236842105263153
444,1387.15524034673,0.06578947368421051
445,1389.952718676123,0.06578947368421051
446,1389.952718676123,0.052631578947368474
447,1389.952718676123,0.05921052631578949
448,1392.750197005516,0.052631578947368474
449,1395.5476753349094,0.046052631578947345
450,1395.5476753349094,0.052631578947368474
451,1398.3451536643024,0.046052631578947345
452,1401.1426319936959,0.046052631578947345
453,1403.940110323089,0.046052631578947345
454,1406.7375886524824,0.046052631578947345
455,1409.5350669818754,0.046052631578947345
456,1409.5350669818754,0.052631578947368474
457,1412.3325453112689,0.052631578947368474
458,1415.1300236406619,0.05921052631578949
459,1415.1300236406619,0.052631578947368474
460,1417.9275019700553,0.05921052631578949
461,1420.7249802994484,0.06578947368421051
