,wavenumbers,absorbance
0,452.797478329393,0.02631578947368418
1,455.5949566587865,0.02631578947368418
2,458.3924349881795,0.02631578947368418
3,461.189913317573,0.02631578947368418
4,463.987391646966,0.02631578947368418
5,466.78486997635946,0.02631578947368418
6,469.5823483057525,0.02631578947368418
7,472.37982663514595,0.019736842105263164
8,472.37982663514595,0.02631578947368418
9,475.17730496453896,0.019736842105263164
10,477.97478329393243,0.019736842105263164
11,480.77226162332545,0.019736842105263164
12,483.56973995271846,0.019736842105263164
13,486.36721828211193,0.019736842105263164
14,489.16469661150495,0.019736842105263164
15,491.9621749408984,0.019736842105263164
16,494.75965327029144,0.019736842105263164
17,497.5571315996849,0.019736842105263164
18,500.3546099290779,0.019736842105263164
19,503.1520882584714,0.019736842105263164
20,505.9495665878644,0.019736842105263164
21,508.7470449172579,0.019736842105263164
22,511.5445232466509,0.019736842105263164
23,514.3420015760439,0.019736842105263164
24,517.1394799054374,0.019736842105263164
25,519.9369582348304,0.019736842105263164
26,522.7344365642239,0.019736842105263164
27,525.5319148936169,0.019736842105263164
28,528.3293932230104,0.019736842105263164
29,531.1268715524034,0.019736842105263164
30,533.9243498817968,0.019736842105263164
31,536.7218282111899,0.019736842105263164
32,539.5193065405833,0.019736842105263164
33,542.3167848699763,0.019736842105263164
34,545.1142631993694,0.019736842105263164
35,547.9117415287628,0.019736842105263164
36,550.7092198581558,0.019736842105263164
37,553.5066981875493,0.019736842105263164
38,556.3041765169423,0.019736842105263164
39,559.1016548463358,0.019736842105263164
40,561.8991331757288,0.019736842105263164
41,564.6966115051223,0.019736842105263164
42,567.4940898345153,0.019736842105263164
43,570.2915681639088,0.019736842105263164
44,573.0890464933018,0.019736842105263164
45,575.8865248226948,0.019736842105263164
46,578.6840031520883,0.019736842105263164
47,581.4814814814813,0.019736842105263164
48,584.2789598108748,0.019736842105263164
49,587.0764381402678,0.019736842105263164
50,589.8739164696613,0.019736842105263164
51,592.6713947990543,0.019736842105263164
52,595.4688731284477,0.019736842105263164
53,598.2663514578408,0.019736842105263164
54,601.0638297872342,0.019736842105263164
55,603.8613081166272,0.019736842105263164
56,606.6587864460207,0.019736842105263164
57,609.4562647754137,0.019736842105263164
58,612.2537431048067,0.019736842105263164
59,615.0512214342002,0.019736842105263164
60,617.8486997635932,0.019736842105263164
61,620.6461780929867,0.019736842105263164
62,623.4436564223797,0.019736842105263164
63,626.2411347517732,0.019736842105263164
64,629.0386130811662,0.019736842105263164
65,631.8360914105597,0.019736842105263164
66,634.6335697399527,0.019736842105263164
67,637.4310480693462,0.019736842105263164
68,640.2285263987392,0.019736842105263164
69,643.0260047281322,0.019736842105263164
70,645.8234830575257,0.019736842105263164
71,648.6209613869187,0.019736842105263164
72,651.4184397163122,0.019736842105263164
73,654.2159180457052,0.019736842105263164
74,657.0133963750986,0.019736842105263164
75,659.8108747044917,0.019736842105263164
76,662.6083530338851,0.019736842105263164
77,665.4058313632781,0.019736842105263164
78,668.2033096926716,0.019736842105263164
79,671.0007880220646,0.019736842105263164
80,673.7982663514576,0.019736842105263164
81,676.5957446808511,0.019736842105263164
82,679.3932230102441,0.019736842105263164
83,682.1907013396376,0.019736842105263164
84,684.9881796690306,0.019736842105263164
85,687.7856579984241,0.019736842105263164
86,690.5831363278171,0.019736842105263164
87,693.3806146572106,0.019736842105263164
88,693.3806146572106,0.02631578947368418
89,696.1780929866036,0.02631578947368418
90,698.9755713159971,0.02631578947368418
91,701.7730496453901,0.02631578947368418
92,704.5705279747831,0.02631578947368418
93,707.3680063041766,0.02631578947368418
94,710.1654846335696,0.02631578947368418
95,712.962962962963,0.03289473684210531
96,712.962962962963,0.02631578947368418
97,715.7604412923561,0.03289473684210531
98,718.5579196217495,0.03289473684210531
99,721.3553979511425,0.03289473684210531
100,724.152876280536,0.03289473684210531
101,726.950354609929,0.03289473684210531
102,729.7478329393225,0.03289473684210531
103,732.5453112687155,0.03289473684210531
104,735.3427895981085,0.03289473684210531
105,738.140267927502,0.03289473684210531
106,740.937746256895,0.03289473684210531
107,743.7352245862885,0.03289473684210531
108,746.5327029156815,0.03289473684210531
109,749.330181245075,0.03289473684210531
110,752.127659574468,0.03289473684210531
111,754.9251379038615,0.03289473684210531
112,757.7226162332545,0.03289473684210531
113,760.520094562648,0.03289473684210531
114,763.317572892041,0.03289473684210531
115,766.115051221434,0.03289473684210531
116,766.115051221434,0.02631578947368418
117,768.9125295508275,0.02631578947368418
118,768.9125295508275,0.03289473684210531
119,771.7100078802205,0.03289473684210531
120,771.7100078802205,0.02631578947368418
121,774.507486209614,0.02631578947368418
122,777.304964539007,0.02631578947368418
123,780.1024428684004,0.02631578947368418
124,782.8999211977934,0.02631578947368418
125,785.6973995271869,0.02631578947368418
126,788.4948778565799,0.02631578947368418
127,791.2923561859734,0.02631578947368418
128,794.0898345153664,0.02631578947368418
129,794.0898345153664,0.03289473684210531
130,796.8873128447594,0.03289473684210531
131,799.6847911741529,0.03289473684210531
132,802.4822695035459,0.03289473684210531
133,805.2797478329394,0.03947368421052633
134,805.2797478329394,0.03289473684210531
135,808.0772261623324,0.03947368421052633
136,810.8747044917259,0.03947368421052633
137,813.6721828211189,0.03289473684210531
138,813.6721828211189,0.03947368421052633
139,816.4696611505124,0.03289473684210531
140,819.2671394799054,0.02631578947368418
141,819.2671394799054,0.03289473684210531
142,822.0646178092989,0.02631578947368418
143,824.8620961386919,0.02631578947368418
144,827.6595744680849,0.02631578947368418
145,830.4570527974784,0.02631578947368418
146,833.2545311268714,0.02631578947368418
147,836.0520094562648,0.02631578947368418
148,838.8494877856579,0.02631578947368418
149,841.6469661150513,0.02631578947368418
150,844.4444444444443,0.02631578947368418
151,847.2419227738378,0.02631578947368418
152,850.0394011032308,0.02631578947368418
153,852.8368794326243,0.02631578947368418
154,855.6343577620173,0.02631578947368418
155,858.4318360914103,0.02631578947368418
156,861.2293144208038,0.02631578947368418
157,864.0267927501968,0.02631578947368418
158,866.8242710795903,0.02631578947368418
159,869.6217494089833,0.02631578947368418
160,872.4192277383768,0.02631578947368418
161,875.2167060677698,0.02631578947368418
162,878.0141843971633,0.02631578947368418
163,880.8116627265563,0.02631578947368418
164,883.6091410559497,0.02631578947368418
165,886.4066193853428,0.02631578947368418
166,889.2040977147362,0.02631578947368418
167,892.0015760441293,0.02631578947368418
168,894.7990543735223,0.02631578947368418
169,897.5965327029157,0.02631578947368418
170,900.3940110323088,0.02631578947368418
171,903.1914893617022,0.02631578947368418
172,905.9889676910952,0.02631578947368418
173,908.7864460204887,0.02631578947368418
174,911.5839243498817,0.02631578947368418
175,914.3814026792752,0.02631578947368418
176,914.3814026792752,0.03289473684210531
177,917.1788810086682,0.03289473684210531
178,919.9763593380617,0.03289473684210531
179,922.7738376674547,0.03289473684210531
180,925.5713159968477,0.03289473684210531
181,928.3687943262412,0.03289473684210531
182,931.1662726556342,0.03289473684210531
183,933.9637509850277,0.03289473684210531
184,936.7612293144207,0.03289473684210531
185,939.5587076438142,0.03289473684210531
186,942.3561859732072,0.03289473684210531
187,945.1536643026006,0.03289473684210531
188,947.9511426319937,0.03289473684210531
189,950.7486209613871,0.03289473684210531
190,953.5460992907801,0.03289473684210531
191,956.3435776201732,0.03289473684210531
192,959.1410559495666,0.03289473684210531
193,961.9385342789597,0.03289473684210531
194,964.7360126083531,0.03289473684210531
195,967.5334909377461,0.03289473684210531
196,970.3309692671396,0.03289473684210531
197,973.1284475965326,0.03289473684210531
198,975.9259259259261,0.03289473684210531
199,978.7234042553191,0.03289473684210531
200,981.5208825847126,0.03289473684210531
201,984.3183609141056,0.03289473684210531
202,987.1158392434986,0.03289473684210531
203,989.9133175728921,0.03289473684210531
204,992.7107959022851,0.03289473684210531
205,995.5082742316786,0.03289473684210531
206,998.3057525610716,0.03289473684210531
207,1001.103230890465,0.03289473684210531
208,1003.9007092198581,0.03289473684210531
209,1006.6981875492515,0.03289473684210531
210,1009.4956658786446,0.03289473684210531
211,1009.4956658786446,0.03947368421052633
212,1012.293144208038,0.03947368421052633
213,1015.090622537431,0.03947368421052633
214,1017.8881008668241,0.03947368421052633
215,1020.6855791962175,0.03947368421052633
216,1023.4830575256105,0.03947368421052633
217,1026.280535855004,0.03947368421052633
218,1029.078014184397,0.03947368421052633
219,1031.8754925137905,0.03947368421052633
220,1034.6729708431835,0.03947368421052633
221,1037.470449172577,0.03947368421052633
222,1040.26792750197,0.03947368421052633
223,1043.0654058313635,0.03947368421052633
224,1045.8628841607565,0.03947368421052633
225,1048.6603624901495,0.03947368421052633
226,1051.457840819543,0.03947368421052633
227,1054.255319148936,0.03947368421052633
228,1057.0527974783295,0.03947368421052633
229,1059.8502758077225,0.03947368421052633
230,1062.647754137116,0.03947368421052633
231,1065.445232466509,0.03947368421052633
232,1068.2427107959024,0.03947368421052633
233,1071.0401891252955,0.03947368421052633
234,1073.837667454689,0.046052631578947345
235,1073.837667454689,0.03947368421052633
236,1076.635145784082,0.046052631578947345
237,1079.432624113475,0.046052631578947345
238,1082.2301024428684,0.046052631578947345
239,1085.0275807722614,0.046052631578947345
240,1085.0275807722614,0.052631578947368474
241,1087.825059101655,0.052631578947368474
242,1090.622537431048,0.05921052631578949
243,1090.622537431048,0.052631578947368474
244,1093.4200157604414,0.05921052631578949
245,1096.2174940898344,0.05921052631578949
246,1099.014972419228,0.05921052631578949
247,1101.812450748621,0.06578947368421051
248,1101.812450748621,0.05921052631578949
249,1104.6099290780144,0.06578947368421051
250,1107.4074074074074,0.06578947368421051
251,1110.2048857368004,0.06578947368421051
252,1113.0023640661939,0.05921052631578949
253,1113.0023640661939,0.06578947368421051
254,1115.799842395587,0.05921052631578949
255,1118.5973207249804,0.05921052631578949
256,1121.3947990543734,0.05921052631578949
257,1121.3947990543734,0.052631578947368474
258,1124.1922773837669,0.052631578947368474
259,1126.9897557131599,0.052631578947368474
260,1129.7872340425533,0.052631578947368474
261,1132.5847123719464,0.052631578947368474
262,1135.3821907013398,0.052631578947368474
263,1138.1796690307328,0.052631578947368474
264,1140.9771473601263,0.052631578947368474
265,1143.7746256895193,0.052631578947368474
266,1146.5721040189123,0.052631578947368474
267,1149.3695823483058,0.052631578947368474
268,1149.3695823483058,0.046052631578947345
269,1152.1670606776988,0.046052631578947345
270,1154.9645390070923,0.046052631578947345
271,1157.7620173364853,0.03947368421052633
272,1157.7620173364853,0.046052631578947345
273,1160.5594956658788,0.03947368421052633
274,1163.3569739952718,0.03947368421052633
275,1166.1544523246653,0.03947368421052633
276,1168.9519306540583,0.03947368421052633
277,1171.7494089834518,0.03947368421052633
278,1171.7494089834518,0.03289473684210531
279,1174.5468873128448,0.03289473684210531
280,1177.3443656422378,0.03289473684210531
281,1180.1418439716313,0.03289473684210531
282,1182.9393223010243,0.03289473684210531
283,1185.7368006304177,0.03289473684210531
284,1188.5342789598108,0.03289473684210531
285,1191.3317572892042,0.03289473684210531
286,1194.1292356185972,0.03289473684210531
287,1196.9267139479907,0.03289473684210531
288,1196.9267139479907,0.02631578947368418
289,1199.7241922773837,0.03289473684210531
290,1202.5216706067772,0.02631578947368418
291,1202.5216706067772,0.03289473684210531
292,1205.3191489361702,0.02631578947368418
293,1208.1166272655632,0.02631578947368418
294,1208.1166272655632,0.03289473684210531
295,1210.9141055949567,0.02631578947368418
296,1210.9141055949567,0.03289473684210531
297,1213.7115839243497,0.02631578947368418
298,1216.5090622537432,0.02631578947368418
299,1219.3065405831362,0.02631578947368418
300,1222.1040189125297,0.02631578947368418
301,1222.1040189125297,0.03289473684210531
302,1224.9014972419227,0.03289473684210531
303,1227.6989755713162,0.03289473684210531
304,1230.4964539007092,0.03289473684210531
305,1233.2939322301027,0.03289473684210531
306,1236.0914105594957,0.03289473684210531
307,1238.8888888888887,0.03289473684210531
308,1241.6863672182822,0.03289473684210531
309,1244.4838455476752,0.03289473684210531
310,1247.2813238770686,0.03289473684210531
311,1250.0788022064617,0.03289473684210531
312,1252.8762805358551,0.03947368421052633
313,1252.8762805358551,0.03289473684210531
314,1255.6737588652481,0.03947368421052633
315,1258.4712371946416,0.03947368421052633
316,1258.4712371946416,0.03289473684210531
317,1261.2687155240346,0.03289473684210531
318,1264.066193853428,0.03289473684210531
319,1266.8636721828211,0.03289473684210531
320,1269.6611505122141,0.03289473684210531
321,1272.4586288416076,0.03289473684210531
322,1275.2561071710006,0.03289473684210531
323,1278.053585500394,0.03289473684210531
324,1280.851063829787,0.03289473684210531
325,1283.6485421591806,0.03289473684210531
326,1286.4460204885736,0.03289473684210531
327,1286.4460204885736,0.03947368421052633
328,1289.243498817967,0.03947368421052633
329,1292.04097714736,0.03947368421052633
330,1294.8384554767536,0.03947368421052633
331,1297.6359338061466,0.03947368421052633
332,1300.4334121355396,0.03947368421052633
333,1303.230890464933,0.03947368421052633
334,1306.028368794326,0.03947368421052633
335,1308.8258471237195,0.03947368421052633
336,1311.6233254531126,0.03947368421052633
337,1314.420803782506,0.03947368421052633
338,1314.420803782506,0.03289473684210531
339,1317.218282111899,0.03289473684210531
340,1320.0157604412925,0.03289473684210531
341,1322.8132387706855,0.03289473684210531
342,1325.610717100079,0.03289473684210531
343,1328.408195429472,0.03289473684210531
344,1328.408195429472,0.03947368421052633
345,1331.205673758865,0.03947368421052633
346,1334.0031520882585,0.03947368421052633
347,1336.8006304176515,0.03947368421052633
348,1339.598108747045,0.046052631578947345
349,1339.598108747045,0.03947368421052633
350,1342.395587076438,0.046052631578947345
351,1345.1930654058315,0.046052631578947345
352,1347.9905437352245,0.046052631578947345
353,1350.788022064618,0.046052631578947345
354,1353.585500394011,0.046052631578947345
355,1356.3829787234044,0.046052631578947345
356,1356.3829787234044,0.052631578947368474
357,1359.1804570527975,0.06578947368421051
358,1359.1804570527975,0.052631578947368474
359,1359.1804570527975,0.05921052631578949
360,1359.1804570527975,0.07236842105263153
361,1361.9779353821905,0.07236842105263153
362,1361.9779353821905,0.07894736842105265
363,1364.775413711584,0.07894736842105265
364,1364.775413711584,0.08552631578947367
365,1367.572892040977,0.08552631578947367
366,1367.572892040977,0.09210526315789469
367,1367.572892040977,0.09868421052631582
368,1367.572892040977,0.10526315789473684
369,1370.3703703703704,0.13815789473684215
370,1370.3703703703704,0.13157894736842102
371,1370.3703703703704,0.11842105263157898
372,1370.3703703703704,0.125
373,1370.3703703703704,0.11184210526315785
374,1370.3703703703704,0.10526315789473684
375,1373.1678486997635,0.13815789473684215
376,1373.1678486997635,0.13157894736842102
377,1375.965327029157,0.13157894736842102
378,1375.965327029157,0.125
379,1375.965327029157,0.09868421052631582
380,1375.965327029157,0.11842105263157898
381,1375.965327029157,0.09210526315789469
382,1375.965327029157,0.11184210526315785
383,1375.965327029157,0.10526315789473684
384,1378.76280535855,0.09210526315789469
385,1378.76280535855,0.08552631578947367
386,1381.5602836879434,0.06578947368421051
387,1381.5602836879434,0.07236842105263153
388,1381.5602836879434,0.08552631578947367
389,1381.5602836879434,0.07894736842105265
390,1384.3577620173364,0.03947368421052633
391,1384.3577620173364,0.06578947368421051
392,1384.3577620173364,0.046052631578947345
393,1384.3577620173364,0.052631578947368474
394,1384.3577620173364,0.05921052631578949
395,1387.15524034673,0.03947368421052633
396,1389.952718676123,0.03289473684210531
397,1389.952718676123,0.03947368421052633
398,1392.750197005516,0.03289473684210531
399,1395.5476753349094,0.03289473684210531
400,1398.3451536643024,0.03289473684210531
401,1401.1426319936959,0.03289473684210531
402,1403.940110323089,0.03289473684210531
403,1406.7375886524824,0.03289473684210531
404,1409.5350669818754,0.03289473684210531
405,1412.3325453112689,0.03289473684210531
406,1415.1300236406619,0.03289473684210531
407,1417.9275019700553,0.03289473684210531
408,1417.9275019700553,0.03947368421052633
409,1420.7249802994484,0.03947368421052633
410,1423.5224586288418,0.03947368421052633
411,1423.5224586288418,0.046052631578947345
412,1426.3199369582348,0.046052631578947345
413,1426.3199369582348,0.05921052631578949
414,1426.3199369582348,0.052631578947368474
415,1429.1174152876279,0.05921052631578949
416,1429.1174152876279,0.07236842105263153
417,1429.1174152876279,0.06578947368421051
418,1431.9148936170213,0.07894736842105265
419,1431.9148936170213,0.07236842105263153
420,1431.9148936170213,0.08552631578947367
421,1431.9148936170213,0.09210526315789469
422,1434.7123719464144,0.10526315789473684
423,1434.7123719464144,0.09868421052631582
424,1434.7123719464144,0.09210526315789469
425,1437.5098502758078,0.11184210526315785
426,1437.5098502758078,0.11842105263157898
427,1437.5098502758078,0.13157894736842102
428,1437.5098502758078,0.10526315789473684
429,1437.5098502758078,0.125
430,1440.3073286052008,0.14473684210526316
431,1440.3073286052008,0.13157894736842102
432,1440.3073286052008,0.13815789473684215
433,1443.1048069345943,0.15131578947368418
434,1443.1048069345943,0.1578947368421053
435,1443.1048069345943,0.14473684210526316
436,1445.9022852639873,0.1842105263157895
437,1445.9022852639873,0.16447368421052633
438,1445.9022852639873,0.1578947368421053
439,1445.9022852639873,0.17763157894736847
440,1445.9022852639873,0.17105263157894735
441,1448.6997635933808,0.20394736842105265
442,1448.6997635933808,0.1842105263157895
443,1448.6997635933808,0.19736842105263153
444,1448.6997635933808,0.1907894736842105
445,1451.4972419227738,0.20394736842105265
446,1451.4972419227738,0.21052631578947367
447,1451.4972419227738,0.22368421052631582
448,1451.4972419227738,0.2171052631578947
449,1454.2947202521673,0.2171052631578947
450,1454.2947202521673,0.22368421052631582
451,1457.0921985815603,0.2171052631578947
452,1457.0921985815603,0.21052631578947367
453,1459.8896769109533,0.21052631578947367
454,1459.8896769109533,0.20394736842105265
455,1462.6871552403468,0.17105263157894735
456,1462.6871552403468,0.20394736842105265
457,1462.6871552403468,0.17763157894736847
458,1462.6871552403468,0.1907894736842105
459,1462.6871552403468,0.19736842105263153
460,1462.6871552403468,0.1842105263157895
