,wavenumbers,absorbance
0,452.797478329393,0.013157894736842146
1,452.797478329393,0.019736842105263164
2,455.5949566587865,0.019736842105263164
3,458.3924349881795,0.019736842105263164
4,461.189913317573,0.019736842105263164
5,463.987391646966,0.019736842105263164
6,466.78486997635946,0.019736842105263164
7,469.5823483057525,0.019736842105263164
8,472.37982663514595,0.019736842105263164
9,475.17730496453896,0.02631578947368418
10,475.17730496453896,0.019736842105263164
11,477.97478329393243,0.02631578947368418
12,480.77226162332545,0.02631578947368418
13,483.56973995271846,0.02631578947368418
14,486.36721828211193,0.02631578947368418
15,489.16469661150495,0.02631578947368418
16,491.9621749408984,0.02631578947368418
17,494.75965327029144,0.02631578947368418
18,497.5571315996849,0.02631578947368418
19,500.3546099290779,0.02631578947368418
20,503.1520882584714,0.02631578947368418
21,505.9495665878644,0.02631578947368418
22,508.7470449172579,0.02631578947368418
23,508.7470449172579,0.03289473684210531
24,511.5445232466509,0.03289473684210531
25,514.3420015760439,0.03289473684210531
26,517.1394799054374,0.03289473684210531
27,519.9369582348304,0.03289473684210531
28,522.7344365642239,0.03947368421052633
29,522.7344365642239,0.03289473684210531
30,525.5319148936169,0.03947368421052633
31,528.3293932230104,0.03947368421052633
32,531.1268715524034,0.046052631578947345
33,531.1268715524034,0.03947368421052633
34,533.9243498817968,0.046052631578947345
35,536.7218282111899,0.046052631578947345
36,539.5193065405833,0.046052631578947345
37,539.5193065405833,0.052631578947368474
38,542.3167848699763,0.046052631578947345
39,545.1142631993694,0.046052631578947345
40,547.9117415287628,0.046052631578947345
41,550.7092198581558,0.046052631578947345
42,553.5066981875493,0.046052631578947345
43,556.3041765169423,0.046052631578947345
44,559.1016548463358,0.046052631578947345
45,561.8991331757288,0.046052631578947345
46,564.6966115051223,0.03947368421052633
47,564.6966115051223,0.046052631578947345
48,567.4940898345153,0.03947368421052633
49,570.2915681639088,0.03947368421052633
50,573.0890464933018,0.03947368421052633
51,575.8865248226948,0.03947368421052633
52,578.6840031520883,0.03947368421052633
53,578.6840031520883,0.03289473684210531
54,581.4814814814813,0.03289473684210531
55,584.2789598108748,0.03289473684210531
56,587.0764381402678,0.03289473684210531
57,589.8739164696613,0.03289473684210531
58,592.6713947990543,0.03289473684210531
59,595.4688731284477,0.03289473684210531
60,598.2663514578408,0.03289473684210531
61,601.0638297872342,0.03289473684210531
62,603.8613081166272,0.03289473684210531
63,606.6587864460207,0.03289473684210531
64,609.4562647754137,0.03289473684210531
65,612.2537431048067,0.03947368421052633
66,612.2537431048067,0.03289473684210531
67,615.0512214342002,0.03947368421052633
68,617.8486997635932,0.03947368421052633
69,620.6461780929867,0.03289473684210531
70,620.6461780929867,0.03947368421052633
71,623.4436564223797,0.03289473684210531
72,626.2411347517732,0.03289473684210531
73,629.0386130811662,0.03289473684210531
74,629.0386130811662,0.02631578947368418
75,631.8360914105597,0.02631578947368418
76,634.6335697399527,0.02631578947368418
77,637.4310480693462,0.02631578947368418
78,640.2285263987392,0.02631578947368418
79,643.0260047281322,0.02631578947368418
80,645.8234830575257,0.02631578947368418
81,648.6209613869187,0.02631578947368418
82,651.4184397163122,0.02631578947368418
83,654.2159180457052,0.03289473684210531
84,654.2159180457052,0.02631578947368418
85,657.0133963750986,0.03289473684210531
86,659.8108747044917,0.03289473684210531
87,662.6083530338851,0.03289473684210531
88,662.6083530338851,0.03947368421052633
89,665.4058313632781,0.03947368421052633
90,668.2033096926716,0.03947368421052633
91,671.0007880220646,0.03947368421052633
92,673.7982663514576,0.03947368421052633
93,673.7982663514576,0.046052631578947345
94,676.5957446808511,0.046052631578947345
95,679.3932230102441,0.052631578947368474
96,679.3932230102441,0.046052631578947345
97,682.1907013396376,0.052631578947368474
98,682.1907013396376,0.05921052631578949
99,684.9881796690306,0.05921052631578949
100,684.9881796690306,0.06578947368421051
101,687.7856579984241,0.08552631578947367
102,687.7856579984241,0.09210526315789469
103,687.7856579984241,0.06578947368421051
104,687.7856579984241,0.10526315789473684
105,687.7856579984241,0.07236842105263153
106,687.7856579984241,0.09868421052631582
107,687.7856579984241,0.07894736842105265
108,687.7856579984241,0.11184210526315785
109,690.5831363278171,0.1842105263157895
110,690.5831363278171,0.17763157894736847
111,690.5831363278171,0.17105263157894735
112,690.5831363278171,0.16447368421052633
113,690.5831363278171,0.1578947368421053
114,690.5831363278171,0.13157894736842102
115,690.5831363278171,0.11842105263157898
116,690.5831363278171,0.14473684210526316
117,690.5831363278171,0.11184210526315785
118,690.5831363278171,0.125
119,690.5831363278171,0.15131578947368418
120,690.5831363278171,0.13815789473684215
121,693.3806146572106,0.29605263157894735
122,693.3806146572106,0.4276315789473685
123,693.3806146572106,0.2894736842105263
124,693.3806146572106,0.22368421052631582
125,693.3806146572106,0.4342105263157895
126,693.3806146572106,0.2828947368421053
127,693.3806146572106,0.1842105263157895
128,693.3806146572106,0.36184210526315785
129,693.3806146572106,0.2763157894736842
130,693.3806146572106,0.1907894736842105
131,693.3806146572106,0.4473684210526315
132,693.3806146572106,0.26973684210526316
133,693.3806146572106,0.2171052631578947
134,693.3806146572106,0.45394736842105265
135,693.3806146572106,0.19736842105263153
136,693.3806146572106,0.20394736842105265
137,693.3806146572106,0.4605263157894737
138,693.3806146572106,0.4407894736842105
139,693.3806146572106,0.3026315789473685
140,693.3806146572106,0.42105263157894735
141,693.3806146572106,0.256578947368421
142,693.3806146572106,0.35526315789473684
143,693.3806146572106,0.368421052631579
144,693.3806146572106,0.3486842105263158
145,693.3806146572106,0.375
146,693.3806146572106,0.3421052631578947
147,693.3806146572106,0.381578947368421
148,693.3806146572106,0.3355263157894737
149,693.3806146572106,0.38815789473684215
150,693.3806146572106,0.24342105263157898
151,693.3806146572106,0.26315789473684215
152,693.3806146572106,0.39473684210526316
153,693.3806146572106,0.4013157894736842
154,693.3806146572106,0.23684210526315785
155,693.3806146572106,0.3223684210526315
156,693.3806146572106,0.4078947368421053
157,693.3806146572106,0.25
158,693.3806146572106,0.3157894736842105
159,693.3806146572106,0.23026315789473684
160,693.3806146572106,0.4144736842105263
161,693.3806146572106,0.3092105263157895
162,693.3806146572106,0.32894736842105265
163,693.3806146572106,0.9013157894736842
164,693.3806146572106,0.5328947368421053
165,693.3806146572106,0.4736842105263158
166,693.3806146572106,0.9407894736842105
167,693.3806146572106,0.7828947368421053
168,693.3806146572106,0.9473684210526316
169,693.3806146572106,0.7763157894736842
170,693.3806146572106,0.9539473684210527
171,693.3806146572106,0.7697368421052632
172,693.3806146572106,0.9605263157894737
173,693.3806146572106,0.7894736842105263
174,693.3806146572106,0.7631578947368421
175,693.3806146572106,0.756578947368421
176,693.3806146572106,0.75
177,693.3806146572106,0.743421052631579
178,693.3806146572106,0.736842105263158
179,693.3806146572106,0.7302631578947368
180,693.3806146572106,0.4671052631578947
181,693.3806146572106,0.7171052631578947
182,693.3806146572106,0.9671052631578947
183,693.3806146572106,0.9342105263157895
184,693.3806146572106,0.7960526315789473
185,693.3806146572106,0.8026315789473684
186,693.3806146572106,0.8881578947368421
187,693.3806146572106,0.9078947368421053
188,693.3806146572106,0.881578947368421
189,693.3806146572106,0.9144736842105263
190,693.3806146572106,0.875
191,693.3806146572106,0.9210526315789473
192,693.3806146572106,0.868421052631579
193,693.3806146572106,0.9276315789473684
194,693.3806146572106,0.8618421052631579
195,693.3806146572106,0.8552631578947368
196,693.3806146572106,0.8486842105263158
197,693.3806146572106,0.8421052631578947
198,693.3806146572106,0.8355263157894737
199,693.3806146572106,0.8289473684210527
200,693.3806146572106,0.8223684210526316
201,693.3806146572106,0.8157894736842105
202,693.3806146572106,0.8092105263157895
203,693.3806146572106,0.7105263157894737
204,693.3806146572106,0.7039473684210527
205,693.3806146572106,0.7236842105263157
206,693.3806146572106,0.6907894736842105
207,693.3806146572106,0.5789473684210527
208,693.3806146572106,0.6973684210526316
209,693.3806146572106,0.5657894736842105
210,693.3806146572106,0.5592105263157895
211,693.3806146572106,0.5526315789473684
212,693.3806146572106,0.5460526315789473
213,693.3806146572106,0.5394736842105263
214,693.3806146572106,0.8947368421052632
215,693.3806146572106,0.5263157894736843
216,693.3806146572106,0.5197368421052632
217,693.3806146572106,0.513157894736842
218,693.3806146572106,0.506578947368421
219,693.3806146572106,0.5
220,693.3806146572106,0.493421052631579
221,693.3806146572106,0.48684210526315785
222,693.3806146572106,1.0
223,693.3806146572106,0.48026315789473684
224,693.3806146572106,0.5855263157894737
225,693.3806146572106,0.21052631578947367
226,693.3806146572106,0.5723684210526316
227,693.3806146572106,0.993421052631579
228,693.3806146572106,0.6842105263157895
229,693.3806146572106,0.6776315789473684
230,693.3806146572106,0.6710526315789473
231,693.3806146572106,0.6644736842105263
232,693.3806146572106,0.6578947368421053
233,693.3806146572106,0.6513157894736843
234,693.3806146572106,0.6447368421052632
235,693.3806146572106,0.5921052631578947
236,693.3806146572106,0.631578947368421
237,693.3806146572106,0.638157894736842
238,693.3806146572106,0.625
239,693.3806146572106,0.618421052631579
240,693.3806146572106,0.9736842105263158
241,693.3806146572106,0.611842105263158
242,693.3806146572106,0.9802631578947368
243,693.3806146572106,0.6052631578947368
244,693.3806146572106,0.9868421052631579
245,693.3806146572106,0.5986842105263157
246,698.9755713159971,0.17105263157894735
247,698.9755713159971,0.17763157894736847
248,698.9755713159971,0.1578947368421053
249,698.9755713159971,0.1842105263157895
250,698.9755713159971,0.1907894736842105
251,698.9755713159971,0.19736842105263153
252,698.9755713159971,0.16447368421052633
253,698.9755713159971,0.20394736842105265
254,698.9755713159971,1.0
255,698.9755713159971,0.48026315789473684
256,698.9755713159971,0.611842105263158
257,698.9755713159971,0.32894736842105265
258,698.9755713159971,0.26315789473684215
259,698.9755713159971,0.3092105263157895
260,698.9755713159971,0.381578947368421
261,698.9755713159971,0.38815789473684215
262,698.9755713159971,0.39473684210526316
263,698.9755713159971,0.4013157894736842
264,698.9755713159971,0.4078947368421053
265,698.9755713159971,0.7960526315789473
266,698.9755713159971,0.4144736842105263
267,698.9755713159971,0.42105263157894735
268,698.9755713159971,0.4276315789473685
269,698.9755713159971,0.4342105263157895
270,698.9755713159971,0.4407894736842105
271,698.9755713159971,0.256578947368421
272,698.9755713159971,0.4473684210526315
273,698.9755713159971,0.45394736842105265
274,698.9755713159971,0.4605263157894737
275,698.9755713159971,0.3223684210526315
276,698.9755713159971,0.506578947368421
277,698.9755713159971,0.8026315789473684
278,698.9755713159971,0.8092105263157895
279,698.9755713159971,0.625
280,698.9755713159971,0.631578947368421
281,698.9755713159971,0.638157894736842
282,698.9755713159971,0.6447368421052632
283,698.9755713159971,0.3026315789473685
284,698.9755713159971,0.25
285,698.9755713159971,0.3355263157894737
286,698.9755713159971,0.29605263157894735
287,698.9755713159971,0.513157894736842
288,698.9755713159971,0.5197368421052632
289,698.9755713159971,0.2763157894736842
290,698.9755713159971,0.493421052631579
291,698.9755713159971,0.4736842105263158
292,698.9755713159971,0.35526315789473684
293,698.9755713159971,0.375
294,698.9755713159971,0.368421052631579
295,698.9755713159971,0.5263157894736843
296,698.9755713159971,0.5328947368421053
297,698.9755713159971,0.5394736842105263
298,698.9755713159971,0.5460526315789473
299,698.9755713159971,0.48684210526315785
300,698.9755713159971,0.3486842105263158
301,698.9755713159971,0.2828947368421053
302,698.9755713159971,0.5526315789473684
303,698.9755713159971,0.5592105263157895
304,698.9755713159971,0.5657894736842105
305,698.9755713159971,0.5723684210526316
306,698.9755713159971,0.5789473684210527
307,698.9755713159971,0.26973684210526316
308,698.9755713159971,0.2894736842105263
309,698.9755713159971,0.36184210526315785
310,698.9755713159971,0.5855263157894737
311,698.9755713159971,0.5921052631578947
312,698.9755713159971,0.5986842105263157
313,698.9755713159971,0.6052631578947368
314,698.9755713159971,0.3421052631578947
315,698.9755713159971,0.4671052631578947
316,698.9755713159971,0.618421052631579
317,698.9755713159971,0.5
318,698.9755713159971,0.9407894736842105
319,698.9755713159971,0.9802631578947368
320,698.9755713159971,0.23026315789473684
321,698.9755713159971,0.75
322,698.9755713159971,0.9736842105263158
323,698.9755713159971,0.8486842105263158
324,698.9755713159971,0.8552631578947368
325,698.9755713159971,0.9342105263157895
326,698.9755713159971,0.9276315789473684
327,698.9755713159971,0.756578947368421
328,698.9755713159971,0.7631578947368421
329,698.9755713159971,0.8618421052631579
330,698.9755713159971,0.7763157894736842
331,698.9755713159971,0.868421052631579
332,698.9755713159971,0.7697368421052632
333,698.9755713159971,0.881578947368421
334,698.9755713159971,0.2171052631578947
335,698.9755713159971,0.8881578947368421
336,698.9755713159971,0.9210526315789473
337,698.9755713159971,0.9671052631578947
338,698.9755713159971,0.8947368421052632
339,698.9755713159971,0.9013157894736842
340,698.9755713159971,0.9473684210526316
341,698.9755713159971,0.9539473684210527
342,698.9755713159971,0.22368421052631582
343,698.9755713159971,0.9605263157894737
344,698.9755713159971,0.875
345,698.9755713159971,0.9078947368421053
346,698.9755713159971,0.7828947368421053
347,698.9755713159971,0.9868421052631579
348,698.9755713159971,0.3157894736842105
349,698.9755713159971,0.6513157894736843
350,698.9755713159971,0.6578947368421053
351,698.9755713159971,0.6644736842105263
352,698.9755713159971,0.6710526315789473
353,698.9755713159971,0.8157894736842105
354,698.9755713159971,0.8223684210526316
355,698.9755713159971,0.6776315789473684
356,698.9755713159971,0.7894736842105263
357,698.9755713159971,0.6842105263157895
358,698.9755713159971,0.6907894736842105
359,698.9755713159971,0.6973684210526316
360,698.9755713159971,0.743421052631579
361,698.9755713159971,0.24342105263157898
362,698.9755713159971,0.21052631578947367
363,698.9755713159971,0.7039473684210527
364,698.9755713159971,0.7105263157894737
365,698.9755713159971,0.7171052631578947
366,698.9755713159971,0.8289473684210527
367,698.9755713159971,0.7236842105263157
368,698.9755713159971,0.23684210526315785
369,698.9755713159971,0.8355263157894737
370,698.9755713159971,0.7302631578947368
371,698.9755713159971,0.736842105263158
372,698.9755713159971,0.8421052631578947
373,698.9755713159971,0.993421052631579
374,698.9755713159971,0.9144736842105263
375,701.7730496453901,0.11184210526315785
376,701.7730496453901,0.11842105263157898
377,701.7730496453901,0.14473684210526316
378,701.7730496453901,0.10526315789473684
379,701.7730496453901,0.13815789473684215
380,701.7730496453901,0.13157894736842102
381,701.7730496453901,0.125
382,701.7730496453901,0.15131578947368418
383,701.7730496453901,0.1578947368421053
384,704.5705279747831,0.07236842105263153
385,704.5705279747831,0.10526315789473684
386,704.5705279747831,0.07894736842105265
387,704.5705279747831,0.08552631578947367
388,704.5705279747831,0.09868421052631582
389,704.5705279747831,0.09210526315789469
390,707.3680063041766,0.05921052631578949
391,707.3680063041766,0.07236842105263153
392,707.3680063041766,0.052631578947368474
393,707.3680063041766,0.06578947368421051
394,710.1654846335696,0.052631578947368474
395,710.1654846335696,0.046052631578947345
396,712.962962962963,0.046052631578947345
397,715.7604412923561,0.046052631578947345
398,718.5579196217495,0.046052631578947345
399,721.3553979511425,0.046052631578947345
400,724.152876280536,0.046052631578947345
401,726.950354609929,0.046052631578947345
402,729.7478329393225,0.046052631578947345
403,732.5453112687155,0.046052631578947345
404,732.5453112687155,0.052631578947368474
405,735.3427895981085,0.052631578947368474
406,735.3427895981085,0.05921052631578949
407,738.140267927502,0.06578947368421051
408,738.140267927502,0.05921052631578949
409,740.937746256895,0.06578947368421051
410,740.937746256895,0.07236842105263153
411,743.7352245862885,0.07236842105263153
412,743.7352245862885,0.07894736842105265
413,743.7352245862885,0.08552631578947367
414,746.5327029156815,0.09210526315789469
415,746.5327029156815,0.08552631578947367
416,749.330181245075,0.11184210526315785
417,749.330181245075,0.09210526315789469
418,749.330181245075,0.09868421052631582
419,749.330181245075,0.10526315789473684
420,752.127659574468,0.125
421,752.127659574468,0.11184210526315785
422,752.127659574468,0.11842105263157898
423,754.9251379038615,0.13157894736842102
424,754.9251379038615,0.125
425,757.7226162332545,0.125
426,757.7226162332545,0.11842105263157898
427,757.7226162332545,0.11184210526315785
428,760.520094562648,0.09868421052631582
429,760.520094562648,0.11184210526315785
430,760.520094562648,0.10526315789473684
431,763.317572892041,0.09210526315789469
432,763.317572892041,0.08552631578947367
433,763.317572892041,0.07894736842105265
434,763.317572892041,0.07236842105263153
435,763.317572892041,0.09868421052631582
436,766.115051221434,0.06578947368421051
437,766.115051221434,0.07236842105263153
438,768.9125295508275,0.05921052631578949
439,768.9125295508275,0.06578947368421051
440,768.9125295508275,0.052631578947368474
441,771.7100078802205,0.052631578947368474
442,771.7100078802205,0.046052631578947345
443,774.507486209614,0.03947368421052633
444,774.507486209614,0.046052631578947345
445,777.304964539007,0.03289473684210531
446,777.304964539007,0.03947368421052633
447,780.1024428684004,0.03289473684210531
448,782.8999211977934,0.02631578947368418
449,782.8999211977934,0.03289473684210531
450,785.6973995271869,0.02631578947368418
451,788.4948778565799,0.02631578947368418
452,791.2923561859734,0.02631578947368418
453,794.0898345153664,0.02631578947368418
454,796.8873128447594,0.02631578947368418
455,799.6847911741529,0.02631578947368418
456,802.4822695035459,0.02631578947368418
457,805.2797478329394,0.02631578947368418
458,808.0772261623324,0.02631578947368418
459,810.8747044917259,0.02631578947368418
460,813.6721828211189,0.02631578947368418
461,816.4696611505124,0.02631578947368418
462,819.2671394799054,0.02631578947368418
463,822.0646178092989,0.02631578947368418
464,824.8620961386919,0.02631578947368418
465,827.6595744680849,0.02631578947368418
466,830.4570527974784,0.02631578947368418
467,833.2545311268714,0.02631578947368418
468,836.0520094562648,0.02631578947368418
469,838.8494877856579,0.02631578947368418
470,841.6469661150513,0.02631578947368418
471,844.4444444444443,0.02631578947368418
472,847.2419227738378,0.02631578947368418
473,850.0394011032308,0.02631578947368418
474,852.8368794326243,0.02631578947368418
475,855.6343577620173,0.02631578947368418
476,858.4318360914103,0.02631578947368418
477,861.2293144208038,0.02631578947368418
