,wavenumbers,absorbance
0,452.797478329393,0.019736842105263164
1,455.5949566587865,0.019736842105263164
2,458.3924349881795,0.02631578947368418
3,458.3924349881795,0.019736842105263164
4,461.189913317573,0.02631578947368418
5,463.987391646966,0.03289473684210531
6,463.987391646966,0.02631578947368418
7,463.987391646966,0.03947368421052633
8,466.78486997635946,0.03947368421052633
9,469.5823483057525,0.03947368421052633
10,472.37982663514595,0.03289473684210531
11,472.37982663514595,0.03947368421052633
12,475.17730496453896,0.03289473684210531
13,477.97478329393243,0.02631578947368418
14,477.97478329393243,0.03289473684210531
15,480.77226162332545,0.02631578947368418
16,483.56973995271846,0.02631578947368418
17,486.36721828211193,0.02631578947368418
18,489.16469661150495,0.02631578947368418
19,491.9621749408984,0.02631578947368418
20,494.75965327029144,0.02631578947368418
21,497.5571315996849,0.02631578947368418
22,500.3546099290779,0.02631578947368418
23,503.1520882584714,0.02631578947368418
24,505.9495665878644,0.02631578947368418
25,508.7470449172579,0.03947368421052633
26,508.7470449172579,0.03289473684210531
27,508.7470449172579,0.02631578947368418
28,511.5445232466509,0.03947368421052633
29,514.3420015760439,0.03947368421052633
30,517.1394799054374,0.03947368421052633
31,519.9369582348304,0.03289473684210531
32,519.9369582348304,0.03947368421052633
33,522.7344365642239,0.03289473684210531
34,525.5319148936169,0.03289473684210531
35,528.3293932230104,0.03289473684210531
36,531.1268715524034,0.03289473684210531
37,531.1268715524034,0.02631578947368418
38,533.9243498817968,0.02631578947368418
39,536.7218282111899,0.02631578947368418
40,539.5193065405833,0.03289473684210531
41,539.5193065405833,0.02631578947368418
42,542.3167848699763,0.03289473684210531
43,545.1142631993694,0.03289473684210531
44,547.9117415287628,0.03289473684210531
45,550.7092198581558,0.03289473684210531
46,553.5066981875493,0.03289473684210531
47,556.3041765169423,0.03289473684210531
48,556.3041765169423,0.03947368421052633
49,559.1016548463358,0.03947368421052633
50,561.8991331757288,0.03947368421052633
51,564.6966115051223,0.046052631578947345
52,564.6966115051223,0.03947368421052633
53,567.4940898345153,0.046052631578947345
54,570.2915681639088,0.052631578947368474
55,570.2915681639088,0.05921052631578949
56,570.2915681639088,0.046052631578947345
57,573.0890464933018,0.05921052631578949
58,573.0890464933018,0.06578947368421051
59,575.8865248226948,0.07894736842105265
60,575.8865248226948,0.06578947368421051
61,575.8865248226948,0.07236842105263153
62,578.6840031520883,0.08552631578947367
63,578.6840031520883,0.07894736842105265
64,581.4814814814813,0.09868421052631582
65,581.4814814814813,0.09210526315789469
66,581.4814814814813,0.08552631578947367
67,584.2789598108748,0.10526315789473684
68,584.2789598108748,0.09868421052631582
69,587.0764381402678,0.11842105263157898
70,587.0764381402678,0.11184210526315785
71,587.0764381402678,0.10526315789473684
72,589.8739164696613,0.11842105263157898
73,589.8739164696613,0.125
74,589.8739164696613,0.13157894736842102
75,589.8739164696613,0.13815789473684215
76,592.6713947990543,0.1578947368421053
77,592.6713947990543,0.14473684210526316
78,592.6713947990543,0.13815789473684215
79,592.6713947990543,0.15131578947368418
80,595.4688731284477,0.16447368421052633
81,595.4688731284477,0.17763157894736847
82,595.4688731284477,0.1907894736842105
83,595.4688731284477,0.1578947368421053
84,595.4688731284477,0.19736842105263153
85,595.4688731284477,0.1842105263157895
86,595.4688731284477,0.17105263157894735
87,595.4688731284477,0.20394736842105265
88,595.4688731284477,0.21052631578947367
89,598.2663514578408,0.24342105263157898
90,598.2663514578408,0.23684210526315785
91,598.2663514578408,0.2171052631578947
92,598.2663514578408,0.22368421052631582
93,598.2663514578408,0.21052631578947367
94,598.2663514578408,0.23026315789473684
95,601.0638297872342,0.26315789473684215
96,601.0638297872342,0.24342105263157898
97,601.0638297872342,0.25
98,601.0638297872342,0.256578947368421
99,601.0638297872342,0.26973684210526316
100,601.0638297872342,0.2828947368421053
101,601.0638297872342,0.2894736842105263
102,601.0638297872342,0.2763157894736842
103,603.8613081166272,0.2894736842105263
104,606.6587864460207,0.2894736842105263
105,606.6587864460207,0.2763157894736842
106,606.6587864460207,0.26973684210526316
107,606.6587864460207,0.2828947368421053
108,606.6587864460207,0.256578947368421
109,606.6587864460207,0.26315789473684215
110,609.4562647754137,0.256578947368421
111,612.2537431048067,0.24342105263157898
112,612.2537431048067,0.23684210526315785
113,612.2537431048067,0.256578947368421
114,612.2537431048067,0.25
115,612.2537431048067,0.23026315789473684
116,615.0512214342002,0.23026315789473684
117,615.0512214342002,0.22368421052631582
118,617.8486997635932,0.22368421052631582
119,620.6461780929867,0.22368421052631582
120,620.6461780929867,0.21052631578947367
121,620.6461780929867,0.2171052631578947
122,623.4436564223797,0.21052631578947367
123,623.4436564223797,0.20394736842105265
124,626.2411347517732,0.1907894736842105
125,626.2411347517732,0.19736842105263153
126,626.2411347517732,0.20394736842105265
127,626.2411347517732,0.1842105263157895
128,629.0386130811662,0.17763157894736847
129,629.0386130811662,0.1842105263157895
130,631.8360914105597,0.17763157894736847
131,631.8360914105597,0.16447368421052633
132,631.8360914105597,0.1578947368421053
133,631.8360914105597,0.15131578947368418
134,631.8360914105597,0.17105263157894735
135,634.6335697399527,0.13815789473684215
136,634.6335697399527,0.15131578947368418
137,634.6335697399527,0.14473684210526316
138,637.4310480693462,0.13815789473684215
139,637.4310480693462,0.13157894736842102
140,640.2285263987392,0.13157894736842102
141,643.0260047281322,0.13157894736842102
142,643.0260047281322,0.125
143,645.8234830575257,0.125
144,648.6209613869187,0.125
145,648.6209613869187,0.11842105263157898
146,651.4184397163122,0.11842105263157898
147,654.2159180457052,0.11842105263157898
148,657.0133963750986,0.11842105263157898
149,659.8108747044917,0.11842105263157898
150,662.6083530338851,0.11842105263157898
151,665.4058313632781,0.11842105263157898
152,668.2033096926716,0.11842105263157898
153,668.2033096926716,0.125
154,671.0007880220646,0.11842105263157898
155,671.0007880220646,0.125
156,673.7982663514576,0.11842105263157898
157,676.5957446808511,0.11184210526315785
158,676.5957446808511,0.11842105263157898
159,679.3932230102441,0.11184210526315785
160,682.1907013396376,0.09868421052631582
161,682.1907013396376,0.10526315789473684
162,682.1907013396376,0.11184210526315785
163,684.9881796690306,0.09868421052631582
164,687.7856579984241,0.08552631578947367
165,687.7856579984241,0.09210526315789469
166,687.7856579984241,0.09868421052631582
167,690.5831363278171,0.08552631578947367
168,690.5831363278171,0.07894736842105265
169,693.3806146572106,0.06578947368421051
170,693.3806146572106,0.07894736842105265
171,693.3806146572106,0.07236842105263153
172,696.1780929866036,0.06578947368421051
173,696.1780929866036,0.052631578947368474
174,696.1780929866036,0.05921052631578949
175,698.9755713159971,0.046052631578947345
176,698.9755713159971,0.03947368421052633
177,698.9755713159971,0.052631578947368474
178,701.7730496453901,0.03289473684210531
179,701.7730496453901,0.03947368421052633
180,704.5705279747831,0.03289473684210531
181,707.3680063041766,0.03289473684210531
182,707.3680063041766,0.02631578947368418
183,710.1654846335696,0.02631578947368418
184,710.1654846335696,0.03289473684210531
185,712.962962962963,0.03289473684210531
186,712.962962962963,0.03947368421052633
187,715.7604412923561,0.046052631578947345
188,715.7604412923561,0.03947368421052633
189,715.7604412923561,0.052631578947368474
190,718.5579196217495,0.052631578947368474
191,718.5579196217495,0.06578947368421051
192,718.5579196217495,0.05921052631578949
193,721.3553979511425,0.07236842105263153
194,721.3553979511425,0.06578947368421051
195,724.152876280536,0.07236842105263153
196,724.152876280536,0.07894736842105265
197,726.950354609929,0.07236842105263153
198,726.950354609929,0.07894736842105265
199,729.7478329393225,0.07236842105263153
200,732.5453112687155,0.07236842105263153
201,732.5453112687155,0.07894736842105265
202,735.3427895981085,0.08552631578947367
203,735.3427895981085,0.07894736842105265
204,738.140267927502,0.09210526315789469
205,738.140267927502,0.08552631578947367
206,740.937746256895,0.09868421052631582
207,740.937746256895,0.09210526315789469
208,743.7352245862885,0.09868421052631582
209,743.7352245862885,0.10526315789473684
210,746.5327029156815,0.10526315789473684
211,749.330181245075,0.10526315789473684
212,752.127659574468,0.10526315789473684
213,752.127659574468,0.09868421052631582
214,754.9251379038615,0.09868421052631582
215,757.7226162332545,0.09210526315789469
216,757.7226162332545,0.09868421052631582
217,760.520094562648,0.08552631578947367
218,760.520094562648,0.09210526315789469
219,763.317572892041,0.07236842105263153
220,763.317572892041,0.08552631578947367
221,763.317572892041,0.06578947368421051
222,763.317572892041,0.07894736842105265
223,766.115051221434,0.06578947368421051
224,766.115051221434,0.05921052631578949
225,768.9125295508275,0.052631578947368474
226,768.9125295508275,0.05921052631578949
227,771.7100078802205,0.046052631578947345
228,771.7100078802205,0.052631578947368474
229,774.507486209614,0.03947368421052633
230,774.507486209614,0.046052631578947345
231,777.304964539007,0.03289473684210531
232,777.304964539007,0.03947368421052633
233,780.1024428684004,0.03289473684210531
234,782.8999211977934,0.03289473684210531
235,785.6973995271869,0.03289473684210531
236,788.4948778565799,0.03947368421052633
237,788.4948778565799,0.03289473684210531
238,788.4948778565799,0.046052631578947345
239,791.2923561859734,0.052631578947368474
240,791.2923561859734,0.046052631578947345
241,794.0898345153664,0.05921052631578949
242,794.0898345153664,0.052631578947368474
243,796.8873128447594,0.05921052631578949
244,799.6847911741529,0.05921052631578949
245,799.6847911741529,0.06578947368421051
246,802.4822695035459,0.06578947368421051
247,805.2797478329394,0.06578947368421051
248,808.0772261623324,0.05921052631578949
249,808.0772261623324,0.06578947368421051
250,810.8747044917259,0.05921052631578949
251,813.6721828211189,0.05921052631578949
252,816.4696611505124,0.05921052631578949
253,819.2671394799054,0.05921052631578949
254,822.0646178092989,0.05921052631578949
255,822.0646178092989,0.06578947368421051
256,824.8620961386919,0.06578947368421051
257,824.8620961386919,0.07236842105263153
258,827.6595744680849,0.07236842105263153
259,830.4570527974784,0.07236842105263153
260,833.2545311268714,0.07236842105263153
261,836.0520094562648,0.07236842105263153
262,836.0520094562648,0.06578947368421051
263,838.8494877856579,0.06578947368421051
264,841.6469661150513,0.06578947368421051
265,844.4444444444443,0.06578947368421051
266,847.2419227738378,0.06578947368421051
267,850.0394011032308,0.06578947368421051
268,852.8368794326243,0.06578947368421051
269,855.6343577620173,0.06578947368421051
270,858.4318360914103,0.07236842105263153
271,858.4318360914103,0.06578947368421051
272,861.2293144208038,0.07236842105263153
273,864.0267927501968,0.07236842105263153
274,866.8242710795903,0.07236842105263153
275,869.6217494089833,0.07236842105263153
276,872.4192277383768,0.07894736842105265
277,872.4192277383768,0.07236842105263153
278,875.2167060677698,0.07894736842105265
279,878.0141843971633,0.07894736842105265
280,880.8116627265563,0.08552631578947367
281,880.8116627265563,0.07894736842105265
282,883.6091410559497,0.08552631578947367
283,886.4066193853428,0.08552631578947367
284,889.2040977147362,0.08552631578947367
285,889.2040977147362,0.09210526315789469
286,892.0015760441293,0.09868421052631582
287,892.0015760441293,0.09210526315789469
288,894.7990543735223,0.09868421052631582
289,897.5965327029157,0.11184210526315785
290,897.5965327029157,0.09868421052631582
291,897.5965327029157,0.10526315789473684
292,900.3940110323088,0.11842105263157898
293,900.3940110323088,0.11184210526315785
294,903.1914893617022,0.11842105263157898
295,903.1914893617022,0.125
296,905.9889676910952,0.13815789473684215
297,905.9889676910952,0.125
298,905.9889676910952,0.13157894736842102
299,908.7864460204887,0.13815789473684215
300,911.5839243498817,0.13815789473684215
301,911.5839243498817,0.15131578947368418
302,911.5839243498817,0.14473684210526316
303,914.3814026792752,0.1578947368421053
304,914.3814026792752,0.15131578947368418
305,917.1788810086682,0.1578947368421053
306,917.1788810086682,0.16447368421052633
307,919.9763593380617,0.16447368421052633
308,919.9763593380617,0.17105263157894735
309,922.7738376674547,0.1842105263157895
310,922.7738376674547,0.17763157894736847
311,922.7738376674547,0.1907894736842105
312,922.7738376674547,0.17105263157894735
313,925.5713159968477,0.20394736842105265
314,925.5713159968477,0.19736842105263153
315,925.5713159968477,0.1907894736842105
316,928.3687943262412,0.2171052631578947
317,928.3687943262412,0.21052631578947367
318,928.3687943262412,0.20394736842105265
319,931.1662726556342,0.2171052631578947
320,931.1662726556342,0.23026315789473684
321,931.1662726556342,0.23684210526315785
322,931.1662726556342,0.22368421052631582
323,933.9637509850277,0.23684210526315785
324,933.9637509850277,0.24342105263157898
325,936.7612293144207,0.24342105263157898
326,939.5587076438142,0.24342105263157898
327,942.3561859732072,0.23684210526315785
328,942.3561859732072,0.24342105263157898
329,945.1536643026006,0.23026315789473684
330,945.1536643026006,0.23684210526315785
331,947.9511426319937,0.23026315789473684
332,947.9511426319937,0.22368421052631582
333,950.7486209613871,0.22368421052631582
334,953.5460992907801,0.2171052631578947
335,956.3435776201732,0.21052631578947367
336,956.3435776201732,0.2171052631578947
337,959.1410559495666,0.21052631578947367
338,961.9385342789597,0.21052631578947367
339,964.7360126083531,0.20394736842105265
340,964.7360126083531,0.21052631578947367
341,967.5334909377461,0.20394736842105265
342,970.3309692671396,0.20394736842105265
343,970.3309692671396,0.19736842105263153
344,973.1284475965326,0.19736842105263153
345,975.9259259259261,0.1907894736842105
346,975.9259259259261,0.19736842105263153
347,978.7234042553191,0.1907894736842105
348,981.5208825847126,0.1907894736842105
349,984.3183609141056,0.1907894736842105
350,984.3183609141056,0.19736842105263153
351,987.1158392434986,0.19736842105263153
352,989.9133175728921,0.19736842105263153
353,989.9133175728921,0.20394736842105265
354,992.7107959022851,0.21052631578947367
355,992.7107959022851,0.20394736842105265
356,992.7107959022851,0.2171052631578947
357,995.5082742316786,0.2171052631578947
358,995.5082742316786,0.22368421052631582
359,998.3057525610716,0.24342105263157898
360,998.3057525610716,0.25
361,998.3057525610716,0.23026315789473684
362,998.3057525610716,0.23684210526315785
363,998.3057525610716,0.22368421052631582
364,1001.103230890465,0.26973684210526316
365,1001.103230890465,0.256578947368421
366,1001.103230890465,0.25
367,1001.103230890465,0.26315789473684215
368,1003.9007092198581,0.2894736842105263
369,1003.9007092198581,0.2828947368421053
370,1003.9007092198581,0.26973684210526316
371,1003.9007092198581,0.3092105263157895
372,1003.9007092198581,0.29605263157894735
373,1003.9007092198581,0.2763157894736842
374,1003.9007092198581,0.3026315789473685
375,1006.6981875492515,0.3157894736842105
376,1006.6981875492515,0.3355263157894737
377,1006.6981875492515,0.3092105263157895
378,1006.6981875492515,0.3223684210526315
379,1006.6981875492515,0.32894736842105265
380,1009.4956658786446,0.36184210526315785
381,1009.4956658786446,0.375
382,1009.4956658786446,0.38815789473684215
383,1009.4956658786446,0.368421052631579
384,1009.4956658786446,0.3486842105263158
385,1009.4956658786446,0.381578947368421
386,1009.4956658786446,0.3421052631578947
387,1009.4956658786446,0.3355263157894737
388,1009.4956658786446,0.39473684210526316
389,1009.4956658786446,0.35526315789473684
390,1012.293144208038,0.4276315789473685
391,1012.293144208038,0.4013157894736842
392,1012.293144208038,0.42105263157894735
393,1012.293144208038,0.39473684210526316
394,1012.293144208038,0.4078947368421053
395,1012.293144208038,0.4144736842105263
396,1012.293144208038,0.4342105263157895
397,1015.090622537431,0.4342105263157895
398,1015.090622537431,0.4473684210526315
399,1015.090622537431,0.4407894736842105
400,1017.8881008668241,0.4473684210526315
401,1017.8881008668241,0.45394736842105265
402,1017.8881008668241,0.4605263157894737
403,1017.8881008668241,0.4671052631578947
404,1020.6855791962175,0.4605263157894737
405,1020.6855791962175,0.4671052631578947
406,1023.4830575256105,0.4407894736842105
407,1023.4830575256105,0.4473684210526315
408,1023.4830575256105,0.4276315789473685
409,1023.4830575256105,0.4605263157894737
410,1023.4830575256105,0.4342105263157895
411,1023.4830575256105,0.45394736842105265
412,1026.280535855004,0.4078947368421053
413,1026.280535855004,0.4276315789473685
414,1026.280535855004,0.42105263157894735
415,1026.280535855004,0.4144736842105263
416,1029.078014184397,0.381578947368421
417,1029.078014184397,0.4078947368421053
418,1029.078014184397,0.38815789473684215
419,1029.078014184397,0.375
420,1029.078014184397,0.4013157894736842
421,1029.078014184397,0.39473684210526316
422,1031.8754925137905,0.368421052631579
423,1031.8754925137905,0.375
424,1034.6729708431835,0.35526315789473684
425,1034.6729708431835,0.368421052631579
426,1034.6729708431835,0.36184210526315785
427,1037.470449172577,0.35526315789473684
428,1040.26792750197,0.3421052631578947
429,1040.26792750197,0.3486842105263158
430,1040.26792750197,0.35526315789473684
431,1043.0654058313635,0.3355263157894737
432,1043.0654058313635,0.3421052631578947
433,1045.8628841607565,0.3355263157894737
434,1045.8628841607565,0.32894736842105265
435,1048.6603624901495,0.32894736842105265
436,1048.6603624901495,0.3223684210526315
437,1048.6603624901495,0.3157894736842105
438,1048.6603624901495,0.3092105263157895
439,1051.457840819543,0.3026315789473685
440,1051.457840819543,0.3092105263157895
441,1054.255319148936,0.3026315789473685
442,1054.255319148936,0.29605263157894735
443,1054.255319148936,0.2894736842105263
444,1057.0527974783295,0.2894736842105263
445,1059.8502758077225,0.2828947368421053
446,1059.8502758077225,0.2894736842105263
447,1062.647754137116,0.2828947368421053
448,1062.647754137116,0.2763157894736842
449,1065.445232466509,0.2828947368421053
450,1065.445232466509,0.2763157894736842
451,1068.2427107959024,0.2763157894736842
452,1071.0401891252955,0.2763157894736842
453,1073.837667454689,0.2763157894736842
454,1076.635145784082,0.2763157894736842
455,1079.432624113475,0.2763157894736842
456,1082.2301024428684,0.2763157894736842
457,1085.0275807722614,0.2763157894736842
458,1087.825059101655,0.2763157894736842
459,1090.622537431048,0.2763157894736842
460,1090.622537431048,0.2828947368421053
461,1093.4200157604414,0.2828947368421053
462,1096.2174940898344,0.2828947368421053
463,1096.2174940898344,0.2894736842105263
464,1099.014972419228,0.2894736842105263
465,1101.812450748621,0.2894736842105263
466,1104.6099290780144,0.2894736842105263
467,1104.6099290780144,0.29605263157894735
468,1107.4074074074074,0.29605263157894735
469,1110.2048857368004,0.3026315789473685
470,1110.2048857368004,0.29605263157894735
471,1113.0023640661939,0.3026315789473685
472,1115.799842395587,0.3026315789473685
