,wavenumbers,absorbance
0,452.797478329393,0.42105263157894735
1,455.5949566587865,0.42105263157894735
2,458.3924349881795,0.42105263157894735
3,461.189913317573,0.42105263157894735
4,463.987391646966,0.42105263157894735
5,466.78486997635946,0.42105263157894735
6,469.5823483057525,0.42105263157894735
7,472.37982663514595,0.42105263157894735
8,475.17730496453896,0.42105263157894735
9,477.97478329393243,0.42105263157894735
10,480.77226162332545,0.42105263157894735
11,483.56973995271846,0.42105263157894735
12,486.36721828211193,0.42105263157894735
13,489.16469661150495,0.42105263157894735
14,491.9621749408984,0.42105263157894735
15,494.75965327029144,0.4144736842105263
16,494.75965327029144,0.42105263157894735
17,497.5571315996849,0.38815789473684215
18,497.5571315996849,0.39473684210526316
19,497.5571315996849,0.4013157894736842
20,497.5571315996849,0.4078947368421053
21,497.5571315996849,0.4144736842105263
22,497.5571315996849,0.368421052631579
23,497.5571315996849,0.381578947368421
24,497.5571315996849,0.375
25,500.3546099290779,0.3421052631578947
26,500.3546099290779,0.36184210526315785
27,500.3546099290779,0.35526315789473684
28,500.3546099290779,0.3486842105263158
29,500.3546099290779,0.3355263157894737
30,500.3546099290779,0.32894736842105265
31,500.3546099290779,0.3223684210526315
32,500.3546099290779,0.3157894736842105
33,500.3546099290779,0.368421052631579
34,500.3546099290779,0.3026315789473685
35,500.3546099290779,0.3092105263157895
36,500.3546099290779,0.29605263157894735
37,503.1520882584714,0.29605263157894735
38,503.1520882584714,0.2894736842105263
39,503.1520882584714,0.2828947368421053
40,503.1520882584714,0.2763157894736842
41,503.1520882584714,0.26973684210526316
42,503.1520882584714,0.26315789473684215
43,505.9495665878644,0.23684210526315785
44,505.9495665878644,0.25
45,505.9495665878644,0.26315789473684215
46,505.9495665878644,0.23026315789473684
47,505.9495665878644,0.24342105263157898
48,505.9495665878644,0.256578947368421
49,508.7470449172579,0.17105263157894735
50,508.7470449172579,0.22368421052631582
51,508.7470449172579,0.1842105263157895
52,508.7470449172579,0.1907894736842105
53,508.7470449172579,0.21052631578947367
54,508.7470449172579,0.23026315789473684
55,508.7470449172579,0.20394736842105265
56,508.7470449172579,0.2171052631578947
57,508.7470449172579,0.17763157894736847
58,508.7470449172579,0.19736842105263153
59,511.5445232466509,0.16447368421052633
60,511.5445232466509,0.1578947368421053
61,511.5445232466509,0.17105263157894735
62,511.5445232466509,0.15131578947368418
63,514.3420015760439,0.14473684210526316
64,514.3420015760439,0.15131578947368418
65,514.3420015760439,0.11842105263157898
66,514.3420015760439,0.125
67,514.3420015760439,0.13815789473684215
68,514.3420015760439,0.13157894736842102
69,517.1394799054374,0.11184210526315785
70,517.1394799054374,0.10526315789473684
71,517.1394799054374,0.11842105263157898
72,517.1394799054374,0.09868421052631582
73,519.9369582348304,0.09868421052631582
74,519.9369582348304,0.07894736842105265
75,519.9369582348304,0.08552631578947367
76,519.9369582348304,0.07236842105263153
77,519.9369582348304,0.09210526315789469
78,522.7344365642239,0.06578947368421051
79,522.7344365642239,0.07236842105263153
80,525.5319148936169,0.05921052631578949
81,525.5319148936169,0.052631578947368474
82,525.5319148936169,0.06578947368421051
83,528.3293932230104,0.046052631578947345
84,528.3293932230104,0.052631578947368474
85,531.1268715524034,0.046052631578947345
86,531.1268715524034,0.03947368421052633
87,533.9243498817968,0.02631578947368418
88,533.9243498817968,0.03947368421052633
89,533.9243498817968,0.03289473684210531
90,536.7218282111899,0.02631578947368418
91,539.5193065405833,0.019736842105263164
92,539.5193065405833,0.02631578947368418
93,542.3167848699763,0.019736842105263164
94,545.1142631993694,0.019736842105263164
95,547.9117415287628,0.019736842105263164
96,550.7092198581558,0.019736842105263164
97,553.5066981875493,0.019736842105263164
98,556.3041765169423,0.019736842105263164
99,559.1016548463358,0.019736842105263164
100,561.8991331757288,0.019736842105263164
101,564.6966115051223,0.019736842105263164
102,567.4940898345153,0.019736842105263164
103,570.2915681639088,0.019736842105263164
104,573.0890464933018,0.019736842105263164
105,575.8865248226948,0.019736842105263164
106,578.6840031520883,0.019736842105263164
107,581.4814814814813,0.019736842105263164
108,584.2789598108748,0.019736842105263164
109,587.0764381402678,0.019736842105263164
110,589.8739164696613,0.019736842105263164
111,592.6713947990543,0.019736842105263164
112,595.4688731284477,0.013157894736842146
113,595.4688731284477,0.019736842105263164
114,598.2663514578408,0.019736842105263164
115,601.0638297872342,0.019736842105263164
116,603.8613081166272,0.019736842105263164
117,606.6587864460207,0.019736842105263164
118,609.4562647754137,0.019736842105263164
119,612.2537431048067,0.019736842105263164
120,615.0512214342002,0.019736842105263164
121,617.8486997635932,0.019736842105263164
122,620.6461780929867,0.019736842105263164
123,623.4436564223797,0.019736842105263164
124,626.2411347517732,0.019736842105263164
125,629.0386130811662,0.019736842105263164
126,631.8360914105597,0.019736842105263164
127,634.6335697399527,0.019736842105263164
128,637.4310480693462,0.019736842105263164
129,640.2285263987392,0.019736842105263164
130,643.0260047281322,0.019736842105263164
131,645.8234830575257,0.019736842105263164
132,648.6209613869187,0.02631578947368418
133,648.6209613869187,0.019736842105263164
134,651.4184397163122,0.02631578947368418
135,654.2159180457052,0.03289473684210531
136,654.2159180457052,0.02631578947368418
137,657.0133963750986,0.03289473684210531
138,659.8108747044917,0.03289473684210531
139,662.6083530338851,0.03947368421052633
140,662.6083530338851,0.03289473684210531
141,665.4058313632781,0.03947368421052633
142,668.2033096926716,0.03947368421052633
143,671.0007880220646,0.03947368421052633
144,673.7982663514576,0.03947368421052633
145,673.7982663514576,0.046052631578947345
146,676.5957446808511,0.046052631578947345
147,679.3932230102441,0.046052631578947345
148,682.1907013396376,0.052631578947368474
149,682.1907013396376,0.046052631578947345
150,684.9881796690306,0.052631578947368474
151,687.7856579984241,0.052631578947368474
152,690.5831363278171,0.052631578947368474
153,693.3806146572106,0.052631578947368474
154,693.3806146572106,0.05921052631578949
155,696.1780929866036,0.05921052631578949
156,698.9755713159971,0.05921052631578949
157,701.7730496453901,0.05921052631578949
158,704.5705279747831,0.05921052631578949
159,707.3680063041766,0.052631578947368474
160,707.3680063041766,0.05921052631578949
161,710.1654846335696,0.052631578947368474
162,712.962962962963,0.052631578947368474
163,715.7604412923561,0.052631578947368474
164,718.5579196217495,0.05921052631578949
165,718.5579196217495,0.052631578947368474
166,721.3553979511425,0.05921052631578949
167,724.152876280536,0.05921052631578949
168,724.152876280536,0.06578947368421051
169,726.950354609929,0.06578947368421051
170,729.7478329393225,0.06578947368421051
171,729.7478329393225,0.07236842105263153
172,732.5453112687155,0.07236842105263153
173,735.3427895981085,0.07894736842105265
174,735.3427895981085,0.07236842105263153
175,738.140267927502,0.07894736842105265
176,738.140267927502,0.08552631578947367
177,740.937746256895,0.08552631578947367
178,743.7352245862885,0.09868421052631582
179,743.7352245862885,0.09210526315789469
180,743.7352245862885,0.08552631578947367
181,746.5327029156815,0.09868421052631582
182,749.330181245075,0.10526315789473684
183,749.330181245075,0.11184210526315785
184,749.330181245075,0.09868421052631582
185,752.127659574468,0.11184210526315785
186,754.9251379038615,0.11184210526315785
187,754.9251379038615,0.11842105263157898
188,757.7226162332545,0.125
189,757.7226162332545,0.11842105263157898
190,760.520094562648,0.13157894736842102
191,760.520094562648,0.125
192,763.317572892041,0.13157894736842102
193,763.317572892041,0.1578947368421053
194,763.317572892041,0.13815789473684215
195,763.317572892041,0.15131578947368418
196,763.317572892041,0.14473684210526316
197,766.115051221434,0.16447368421052633
198,766.115051221434,0.17105263157894735
199,766.115051221434,0.1578947368421053
200,768.9125295508275,0.21052631578947367
201,768.9125295508275,0.20394736842105265
202,768.9125295508275,0.17763157894736847
203,768.9125295508275,0.1842105263157895
204,768.9125295508275,0.17105263157894735
205,768.9125295508275,0.19736842105263153
206,768.9125295508275,0.1907894736842105
207,771.7100078802205,0.2171052631578947
208,771.7100078802205,0.23684210526315785
209,771.7100078802205,0.23026315789473684
210,771.7100078802205,0.21052631578947367
211,771.7100078802205,0.22368421052631582
212,774.507486209614,0.26973684210526316
213,774.507486209614,0.2894736842105263
214,774.507486209614,0.25
215,774.507486209614,0.24342105263157898
216,774.507486209614,0.26315789473684215
217,774.507486209614,0.256578947368421
218,774.507486209614,0.29605263157894735
219,774.507486209614,0.2828947368421053
220,774.507486209614,0.2763157894736842
221,774.507486209614,0.23684210526315785
222,777.304964539007,0.3026315789473685
223,777.304964539007,0.3092105263157895
224,777.304964539007,0.29605263157894735
225,777.304964539007,0.32894736842105265
226,777.304964539007,0.3223684210526315
227,777.304964539007,0.3157894736842105
228,780.1024428684004,0.32894736842105265
229,780.1024428684004,0.3421052631578947
230,780.1024428684004,0.35526315789473684
231,780.1024428684004,0.36184210526315785
232,780.1024428684004,0.3355263157894737
233,780.1024428684004,0.375
234,780.1024428684004,0.38815789473684215
235,780.1024428684004,0.4013157894736842
236,780.1024428684004,0.3486842105263158
237,780.1024428684004,0.368421052631579
238,780.1024428684004,0.4078947368421053
239,780.1024428684004,0.39473684210526316
240,780.1024428684004,0.381578947368421
241,782.8999211977934,0.4342105263157895
242,782.8999211977934,0.4407894736842105
243,782.8999211977934,0.42105263157894735
244,782.8999211977934,0.4276315789473685
245,782.8999211977934,0.4078947368421053
246,782.8999211977934,0.4473684210526315
247,782.8999211977934,0.4144736842105263
248,785.6973995271869,0.48026315789473684
249,785.6973995271869,0.4736842105263158
250,785.6973995271869,0.4473684210526315
251,785.6973995271869,0.45394736842105265
252,785.6973995271869,0.48684210526315785
253,785.6973995271869,0.493421052631579
254,785.6973995271869,0.4671052631578947
255,785.6973995271869,0.4605263157894737
256,788.4948778565799,0.5
257,788.4948778565799,0.5394736842105263
258,788.4948778565799,0.5460526315789473
259,788.4948778565799,0.506578947368421
260,788.4948778565799,0.5592105263157895
261,788.4948778565799,0.493421052631579
262,788.4948778565799,0.5526315789473684
263,788.4948778565799,0.5263157894736843
264,788.4948778565799,0.5657894736842105
265,788.4948778565799,0.513157894736842
266,788.4948778565799,0.5197368421052632
267,788.4948778565799,0.5328947368421053
268,791.2923561859734,0.5986842105263157
269,791.2923561859734,0.5657894736842105
270,791.2923561859734,0.5921052631578947
271,791.2923561859734,0.5723684210526316
272,791.2923561859734,0.5789473684210527
273,791.2923561859734,0.5855263157894737
274,794.0898345153664,0.625
275,794.0898345153664,0.618421052631579
276,794.0898345153664,0.6052631578947368
277,794.0898345153664,0.611842105263158
278,794.0898345153664,0.5986842105263157
279,794.0898345153664,0.631578947368421
280,796.8873128447594,0.631578947368421
281,796.8873128447594,0.638157894736842
282,799.6847911741529,0.631578947368421
283,799.6847911741529,0.638157894736842
284,799.6847911741529,0.625
285,802.4822695035459,0.625
286,802.4822695035459,0.611842105263158
287,802.4822695035459,0.618421052631579
288,805.2797478329394,0.5986842105263157
289,805.2797478329394,0.5723684210526316
290,805.2797478329394,0.5855263157894737
291,805.2797478329394,0.5789473684210527
292,805.2797478329394,0.6052631578947368
293,805.2797478329394,0.5921052631578947
294,805.2797478329394,0.611842105263158
295,808.0772261623324,0.5592105263157895
296,808.0772261623324,0.5723684210526316
297,808.0772261623324,0.5657894736842105
298,810.8747044917259,0.5526315789473684
299,810.8747044917259,0.5263157894736843
300,810.8747044917259,0.5592105263157895
301,810.8747044917259,0.5460526315789473
302,810.8747044917259,0.5394736842105263
303,810.8747044917259,0.5328947368421053
304,813.6721828211189,0.5197368421052632
305,813.6721828211189,0.513157894736842
306,813.6721828211189,0.506578947368421
307,813.6721828211189,0.5263157894736843
308,816.4696611505124,0.5
309,816.4696611505124,0.48684210526315785
310,816.4696611505124,0.506578947368421
311,816.4696611505124,0.493421052631579
312,819.2671394799054,0.45394736842105265
313,819.2671394799054,0.48026315789473684
314,819.2671394799054,0.48684210526315785
315,819.2671394799054,0.4342105263157895
316,819.2671394799054,0.4671052631578947
317,819.2671394799054,0.4473684210526315
318,819.2671394799054,0.4407894736842105
319,819.2671394799054,0.4605263157894737
320,819.2671394799054,0.4276315789473685
321,819.2671394799054,0.4736842105263158
322,822.0646178092989,0.39473684210526316
323,822.0646178092989,0.4144736842105263
324,822.0646178092989,0.4276315789473685
325,822.0646178092989,0.42105263157894735
326,822.0646178092989,0.4078947368421053
327,822.0646178092989,0.4013157894736842
328,824.8620961386919,0.375
329,824.8620961386919,0.36184210526315785
330,824.8620961386919,0.381578947368421
331,824.8620961386919,0.368421052631579
332,824.8620961386919,0.39473684210526316
333,824.8620961386919,0.38815789473684215
334,824.8620961386919,0.35526315789473684
335,824.8620961386919,0.3486842105263158
336,827.6595744680849,0.3421052631578947
337,827.6595744680849,0.32894736842105265
338,827.6595744680849,0.3486842105263158
339,827.6595744680849,0.3355263157894737
340,830.4570527974784,0.3026315789473685
341,830.4570527974784,0.3157894736842105
342,830.4570527974784,0.3223684210526315
343,830.4570527974784,0.3092105263157895
344,830.4570527974784,0.32894736842105265
345,833.2545311268714,0.3026315789473685
346,833.2545311268714,0.29605263157894735
347,836.0520094562648,0.29605263157894735
348,836.0520094562648,0.2828947368421053
349,836.0520094562648,0.2894736842105263
350,838.8494877856579,0.2763157894736842
351,838.8494877856579,0.2828947368421053
352,841.6469661150513,0.256578947368421
353,841.6469661150513,0.26973684210526316
354,841.6469661150513,0.2763157894736842
355,841.6469661150513,0.26315789473684215
356,844.4444444444443,0.24342105263157898
357,844.4444444444443,0.25
358,844.4444444444443,0.256578947368421
359,847.2419227738378,0.23026315789473684
360,847.2419227738378,0.23684210526315785
361,850.0394011032308,0.19736842105263153
362,850.0394011032308,0.21052631578947367
363,850.0394011032308,0.20394736842105265
364,850.0394011032308,0.22368421052631582
365,850.0394011032308,0.2171052631578947
366,850.0394011032308,0.23026315789473684
367,852.8368794326243,0.19736842105263153
368,852.8368794326243,0.1907894736842105
369,852.8368794326243,0.1842105263157895
370,855.6343577620173,0.1842105263157895
371,855.6343577620173,0.17105263157894735
372,855.6343577620173,0.17763157894736847
373,855.6343577620173,0.16447368421052633
374,858.4318360914103,0.15131578947368418
375,858.4318360914103,0.1578947368421053
376,858.4318360914103,0.16447368421052633
377,861.2293144208038,0.14473684210526316
378,861.2293144208038,0.13157894736842102
379,861.2293144208038,0.15131578947368418
380,861.2293144208038,0.13815789473684215
381,864.0267927501968,0.125
382,864.0267927501968,0.13157894736842102
383,866.8242710795903,0.11842105263157898
384,866.8242710795903,0.125
385,866.8242710795903,0.11184210526315785
386,869.6217494089833,0.10526315789473684
387,869.6217494089833,0.11184210526315785
388,872.4192277383768,0.10526315789473684
389,875.2167060677698,0.09868421052631582
390,875.2167060677698,0.09210526315789469
391,875.2167060677698,0.10526315789473684
392,878.0141843971633,0.09210526315789469
393,880.8116627265563,0.09210526315789469
394,880.8116627265563,0.07894736842105265
395,880.8116627265563,0.08552631578947367
396,883.6091410559497,0.07894736842105265
397,886.4066193853428,0.07894736842105265
398,889.2040977147362,0.07894736842105265
399,892.0015760441293,0.07894736842105265
400,894.7990543735223,0.07894736842105265
401,897.5965327029157,0.07894736842105265
402,900.3940110323088,0.07894736842105265
403,903.1914893617022,0.08552631578947367
404,903.1914893617022,0.07894736842105265
405,905.9889676910952,0.08552631578947367
406,908.7864460204887,0.08552631578947367
407,911.5839243498817,0.09210526315789469
408,911.5839243498817,0.08552631578947367
409,914.3814026792752,0.09210526315789469
410,914.3814026792752,0.09868421052631582
411,917.1788810086682,0.09868421052631582
412,919.9763593380617,0.10526315789473684
413,919.9763593380617,0.09868421052631582
414,922.7738376674547,0.11184210526315785
415,922.7738376674547,0.10526315789473684
416,925.5713159968477,0.11184210526315785
417,928.3687943262412,0.11842105263157898
418,928.3687943262412,0.11184210526315785
419,931.1662726556342,0.125
420,931.1662726556342,0.11842105263157898
421,933.9637509850277,0.125
422,936.7612293144207,0.125
423,936.7612293144207,0.13157894736842102
424,939.5587076438142,0.13157894736842102
425,939.5587076438142,0.13815789473684215
426,942.3561859732072,0.14473684210526316
427,942.3561859732072,0.13815789473684215
428,945.1536643026006,0.14473684210526316
429,945.1536643026006,0.15131578947368418
430,947.9511426319937,0.16447368421052633
431,947.9511426319937,0.15131578947368418
432,947.9511426319937,0.1578947368421053
433,950.7486209613871,0.16447368421052633
434,950.7486209613871,0.17105263157894735
435,953.5460992907801,0.17105263157894735
436,953.5460992907801,0.17763157894736847
437,953.5460992907801,0.1842105263157895
438,956.3435776201732,0.1907894736842105
439,956.3435776201732,0.1842105263157895
440,959.1410559495666,0.1907894736842105
441,959.1410559495666,0.19736842105263153
442,961.9385342789597,0.19736842105263153
443,961.9385342789597,0.2171052631578947
444,961.9385342789597,0.20394736842105265
445,961.9385342789597,0.21052631578947367
446,964.7360126083531,0.2171052631578947
447,964.7360126083531,0.22368421052631582
448,964.7360126083531,0.23026315789473684
449,967.5334909377461,0.25
450,967.5334909377461,0.24342105263157898
451,967.5334909377461,0.23684210526315785
452,967.5334909377461,0.23026315789473684
453,970.3309692671396,0.256578947368421
454,970.3309692671396,0.26315789473684215
455,970.3309692671396,0.25
456,973.1284475965326,0.2894736842105263
457,973.1284475965326,0.2828947368421053
458,973.1284475965326,0.2763157894736842
459,973.1284475965326,0.26315789473684215
460,973.1284475965326,0.26973684210526316
461,975.9259259259261,0.29605263157894735
462,975.9259259259261,0.3026315789473685
463,975.9259259259261,0.2894736842105263
464,978.7234042553191,0.32894736842105265
465,978.7234042553191,0.3026315789473685
466,978.7234042553191,0.3223684210526315
467,978.7234042553191,0.3421052631578947
468,978.7234042553191,0.3092105263157895
469,978.7234042553191,0.3355263157894737
470,978.7234042553191,0.3157894736842105
471,981.5208825847126,0.3486842105263158
472,981.5208825847126,0.3421052631578947
473,981.5208825847126,0.35526315789473684
474,981.5208825847126,0.36184210526315785
475,984.3183609141056,0.375
476,984.3183609141056,0.36184210526315785
477,984.3183609141056,0.368421052631579
