,wavenumbers,absorbance
0,452.797478329393,0.05921052631578949
1,452.797478329393,0.052631578947368474
2,455.5949566587865,0.052631578947368474
3,458.3924349881795,0.052631578947368474
4,461.189913317573,0.052631578947368474
5,463.987391646966,0.052631578947368474
6,463.987391646966,0.05921052631578949
7,466.78486997635946,0.05921052631578949
8,469.5823483057525,0.05921052631578949
9,472.37982663514595,0.052631578947368474
10,472.37982663514595,0.05921052631578949
11,475.17730496453896,0.052631578947368474
12,477.97478329393243,0.052631578947368474
13,480.77226162332545,0.052631578947368474
14,483.56973995271846,0.052631578947368474
15,486.36721828211193,0.052631578947368474
16,489.16469661150495,0.052631578947368474
17,491.9621749408984,0.052631578947368474
18,491.9621749408984,0.046052631578947345
19,494.75965327029144,0.046052631578947345
20,497.5571315996849,0.046052631578947345
21,500.3546099290779,0.046052631578947345
22,503.1520882584714,0.046052631578947345
23,505.9495665878644,0.046052631578947345
24,508.7470449172579,0.046052631578947345
25,511.5445232466509,0.046052631578947345
26,514.3420015760439,0.052631578947368474
27,514.3420015760439,0.046052631578947345
28,517.1394799054374,0.052631578947368474
29,519.9369582348304,0.052631578947368474
30,519.9369582348304,0.046052631578947345
31,522.7344365642239,0.046052631578947345
32,525.5319148936169,0.046052631578947345
33,528.3293932230104,0.046052631578947345
34,531.1268715524034,0.046052631578947345
35,533.9243498817968,0.046052631578947345
36,536.7218282111899,0.046052631578947345
37,536.7218282111899,0.03947368421052633
38,539.5193065405833,0.03947368421052633
39,542.3167848699763,0.03947368421052633
40,545.1142631993694,0.03947368421052633
41,547.9117415287628,0.03947368421052633
42,550.7092198581558,0.03947368421052633
43,550.7092198581558,0.03289473684210531
44,553.5066981875493,0.03289473684210531
45,556.3041765169423,0.03289473684210531
46,559.1016548463358,0.03289473684210531
47,561.8991331757288,0.03289473684210531
48,564.6966115051223,0.03289473684210531
49,567.4940898345153,0.03289473684210531
50,570.2915681639088,0.03289473684210531
51,573.0890464933018,0.02631578947368418
52,575.8865248226948,0.02631578947368418
53,578.6840031520883,0.02631578947368418
54,581.4814814814813,0.02631578947368418
55,584.2789598108748,0.02631578947368418
56,587.0764381402678,0.019736842105263164
57,587.0764381402678,0.02631578947368418
58,589.8739164696613,0.019736842105263164
59,592.6713947990543,0.019736842105263164
60,595.4688731284477,0.019736842105263164
61,598.2663514578408,0.019736842105263164
62,601.0638297872342,0.019736842105263164
63,603.8613081166272,0.019736842105263164
64,606.6587864460207,0.019736842105263164
65,609.4562647754137,0.019736842105263164
66,612.2537431048067,0.019736842105263164
67,615.0512214342002,0.019736842105263164
68,617.8486997635932,0.019736842105263164
69,620.6461780929867,0.019736842105263164
70,623.4436564223797,0.019736842105263164
71,626.2411347517732,0.019736842105263164
72,629.0386130811662,0.019736842105263164
73,631.8360914105597,0.019736842105263164
74,634.6335697399527,0.019736842105263164
75,637.4310480693462,0.019736842105263164
76,640.2285263987392,0.019736842105263164
77,643.0260047281322,0.019736842105263164
78,645.8234830575257,0.02631578947368418
79,645.8234830575257,0.019736842105263164
80,648.6209613869187,0.02631578947368418
81,651.4184397163122,0.02631578947368418
82,654.2159180457052,0.02631578947368418
83,657.0133963750986,0.02631578947368418
84,659.8108747044917,0.02631578947368418
85,662.6083530338851,0.019736842105263164
86,662.6083530338851,0.02631578947368418
87,665.4058313632781,0.019736842105263164
88,668.2033096926716,0.019736842105263164
89,671.0007880220646,0.019736842105263164
90,673.7982663514576,0.019736842105263164
91,676.5957446808511,0.019736842105263164
92,679.3932230102441,0.013157894736842146
93,679.3932230102441,0.019736842105263164
94,682.1907013396376,0.013157894736842146
95,682.1907013396376,0.019736842105263164
96,684.9881796690306,0.019736842105263164
97,687.7856579984241,0.019736842105263164
98,690.5831363278171,0.019736842105263164
99,693.3806146572106,0.019736842105263164
100,696.1780929866036,0.019736842105263164
101,698.9755713159971,0.019736842105263164
102,701.7730496453901,0.019736842105263164
103,704.5705279747831,0.019736842105263164
104,707.3680063041766,0.019736842105263164
105,710.1654846335696,0.019736842105263164
106,712.962962962963,0.019736842105263164
107,715.7604412923561,0.019736842105263164
108,718.5579196217495,0.019736842105263164
109,721.3553979511425,0.019736842105263164
110,724.152876280536,0.019736842105263164
111,726.950354609929,0.019736842105263164
112,729.7478329393225,0.019736842105263164
113,732.5453112687155,0.019736842105263164
114,735.3427895981085,0.019736842105263164
115,738.140267927502,0.019736842105263164
116,740.937746256895,0.019736842105263164
117,743.7352245862885,0.019736842105263164
118,746.5327029156815,0.019736842105263164
119,749.330181245075,0.019736842105263164
120,752.127659574468,0.019736842105263164
121,754.9251379038615,0.019736842105263164
122,757.7226162332545,0.019736842105263164
123,760.520094562648,0.019736842105263164
124,763.317572892041,0.019736842105263164
125,763.317572892041,0.02631578947368418
126,766.115051221434,0.02631578947368418
127,768.9125295508275,0.02631578947368418
128,771.7100078802205,0.02631578947368418
129,774.507486209614,0.02631578947368418
130,777.304964539007,0.02631578947368418
131,780.1024428684004,0.02631578947368418
132,782.8999211977934,0.02631578947368418
133,785.6973995271869,0.02631578947368418
134,788.4948778565799,0.02631578947368418
135,788.4948778565799,0.03289473684210531
136,791.2923561859734,0.03289473684210531
137,794.0898345153664,0.03289473684210531
138,796.8873128447594,0.03947368421052633
139,796.8873128447594,0.03289473684210531
140,799.6847911741529,0.03947368421052633
141,802.4822695035459,0.03947368421052633
142,805.2797478329394,0.03947368421052633
143,805.2797478329394,0.046052631578947345
144,808.0772261623324,0.046052631578947345
145,808.0772261623324,0.052631578947368474
146,810.8747044917259,0.052631578947368474
147,810.8747044917259,0.05921052631578949
148,813.6721828211189,0.05921052631578949
149,813.6721828211189,0.06578947368421051
150,816.4696611505124,0.06578947368421051
151,819.2671394799054,0.06578947368421051
152,819.2671394799054,0.07236842105263153
153,822.0646178092989,0.06578947368421051
154,824.8620961386919,0.06578947368421051
155,827.6595744680849,0.06578947368421051
156,827.6595744680849,0.07236842105263153
157,830.4570527974784,0.08552631578947367
158,830.4570527974784,0.07236842105263153
159,830.4570527974784,0.09210526315789469
160,830.4570527974784,0.07894736842105265
161,833.2545311268714,0.09210526315789469
162,836.0520094562648,0.09210526315789469
163,836.0520094562648,0.07894736842105265
164,836.0520094562648,0.08552631578947367
165,838.8494877856579,0.07894736842105265
166,841.6469661150513,0.07236842105263153
167,841.6469661150513,0.07894736842105265
168,844.4444444444443,0.07236842105263153
169,847.2419227738378,0.07236842105263153
170,850.0394011032308,0.07894736842105265
171,850.0394011032308,0.07236842105263153
172,852.8368794326243,0.07894736842105265
173,852.8368794326243,0.08552631578947367
174,855.6343577620173,0.08552631578947367
175,858.4318360914103,0.08552631578947367
176,861.2293144208038,0.08552631578947367
177,864.0267927501968,0.08552631578947367
178,864.0267927501968,0.07894736842105265
179,866.8242710795903,0.06578947368421051
180,866.8242710795903,0.07236842105263153
181,866.8242710795903,0.07894736842105265
182,869.6217494089833,0.06578947368421051
183,869.6217494089833,0.05921052631578949
184,872.4192277383768,0.05921052631578949
185,872.4192277383768,0.052631578947368474
186,875.2167060677698,0.052631578947368474
187,875.2167060677698,0.046052631578947345
188,878.0141843971633,0.046052631578947345
189,880.8116627265563,0.046052631578947345
190,883.6091410559497,0.052631578947368474
191,883.6091410559497,0.046052631578947345
192,886.4066193853428,0.052631578947368474
193,886.4066193853428,0.05921052631578949
194,889.2040977147362,0.05921052631578949
195,892.0015760441293,0.05921052631578949
196,892.0015760441293,0.06578947368421051
197,892.0015760441293,0.07236842105263153
198,894.7990543735223,0.08552631578947367
199,894.7990543735223,0.07236842105263153
200,894.7990543735223,0.07894736842105265
201,897.5965327029157,0.08552631578947367
202,897.5965327029157,0.10526315789473684
203,897.5965327029157,0.09210526315789469
204,897.5965327029157,0.09868421052631582
205,900.3940110323088,0.11184210526315785
206,900.3940110323088,0.10526315789473684
207,903.1914893617022,0.11842105263157898
208,903.1914893617022,0.11184210526315785
209,905.9889676910952,0.11842105263157898
210,908.7864460204887,0.11842105263157898
211,911.5839243498817,0.11842105263157898
212,911.5839243498817,0.125
213,914.3814026792752,0.13157894736842102
214,914.3814026792752,0.125
215,917.1788810086682,0.13815789473684215
216,917.1788810086682,0.13157894736842102
217,919.9763593380617,0.14473684210526316
218,919.9763593380617,0.13815789473684215
219,922.7738376674547,0.14473684210526316
220,922.7738376674547,0.15131578947368418
221,925.5713159968477,0.15131578947368418
222,928.3687943262412,0.15131578947368418
223,931.1662726556342,0.15131578947368418
224,931.1662726556342,0.1578947368421053
225,933.9637509850277,0.1578947368421053
226,933.9637509850277,0.16447368421052633
227,936.7612293144207,0.17105263157894735
228,936.7612293144207,0.17763157894736847
229,936.7612293144207,0.16447368421052633
230,939.5587076438142,0.1842105263157895
231,939.5587076438142,0.17763157894736847
232,942.3561859732072,0.1842105263157895
233,945.1536643026006,0.1842105263157895
234,947.9511426319937,0.1907894736842105
235,947.9511426319937,0.1842105263157895
236,950.7486209613871,0.1907894736842105
237,953.5460992907801,0.1907894736842105
238,953.5460992907801,0.1842105263157895
239,953.5460992907801,0.17763157894736847
240,956.3435776201732,0.17105263157894735
241,956.3435776201732,0.17763157894736847
242,956.3435776201732,0.16447368421052633
243,959.1410559495666,0.1578947368421053
244,959.1410559495666,0.16447368421052633
245,961.9385342789597,0.1578947368421053
246,961.9385342789597,0.16447368421052633
247,964.7360126083531,0.16447368421052633
248,964.7360126083531,0.1578947368421053
249,967.5334909377461,0.13815789473684215
250,967.5334909377461,0.13157894736842102
251,967.5334909377461,0.14473684210526316
252,967.5334909377461,0.15131578947368418
253,967.5334909377461,0.1578947368421053
254,970.3309692671396,0.13157894736842102
255,970.3309692671396,0.11184210526315785
256,970.3309692671396,0.125
257,970.3309692671396,0.11842105263157898
258,973.1284475965326,0.09210526315789469
259,973.1284475965326,0.11184210526315785
260,973.1284475965326,0.09868421052631582
261,973.1284475965326,0.10526315789473684
262,975.9259259259261,0.09210526315789469
263,975.9259259259261,0.08552631578947367
264,978.7234042553191,0.07894736842105265
265,978.7234042553191,0.08552631578947367
266,981.5208825847126,0.07894736842105265
267,984.3183609141056,0.07894736842105265
268,984.3183609141056,0.07236842105263153
269,987.1158392434986,0.07894736842105265
270,987.1158392434986,0.07236842105263153
271,989.9133175728921,0.07894736842105265
272,992.7107959022851,0.08552631578947367
273,992.7107959022851,0.07894736842105265
274,995.5082742316786,0.09210526315789469
275,995.5082742316786,0.08552631578947367
276,998.3057525610716,0.10526315789473684
277,998.3057525610716,0.09868421052631582
278,998.3057525610716,0.09210526315789469
279,998.3057525610716,0.11184210526315785
280,1001.103230890465,0.11842105263157898
281,1001.103230890465,0.11184210526315785
282,1001.103230890465,0.125
283,1003.9007092198581,0.13815789473684215
284,1003.9007092198581,0.15131578947368418
285,1003.9007092198581,0.13157894736842102
286,1003.9007092198581,0.1578947368421053
287,1003.9007092198581,0.125
288,1003.9007092198581,0.14473684210526316
289,1006.6981875492515,0.1578947368421053
290,1006.6981875492515,0.16447368421052633
291,1009.4956658786446,0.17105263157894735
292,1009.4956658786446,0.16447368421052633
293,1012.293144208038,0.16447368421052633
294,1012.293144208038,0.1578947368421053
295,1015.090622537431,0.15131578947368418
296,1015.090622537431,0.1578947368421053
297,1017.8881008668241,0.15131578947368418
298,1017.8881008668241,0.13815789473684215
299,1017.8881008668241,0.14473684210526316
300,1020.6855791962175,0.13157894736842102
301,1020.6855791962175,0.13815789473684215
302,1023.4830575256105,0.13157894736842102
303,1023.4830575256105,0.125
304,1026.280535855004,0.125
305,1029.078014184397,0.125
306,1031.8754925137905,0.125
307,1031.8754925137905,0.13815789473684215
308,1031.8754925137905,0.13157894736842102
309,1034.6729708431835,0.15131578947368418
310,1034.6729708431835,0.14473684210526316
311,1034.6729708431835,0.13815789473684215
312,1034.6729708431835,0.1578947368421053
313,1037.470449172577,0.16447368421052633
314,1037.470449172577,0.1578947368421053
315,1037.470449172577,0.17763157894736847
316,1037.470449172577,0.17105263157894735
317,1040.26792750197,0.19736842105263153
318,1040.26792750197,0.21052631578947367
319,1040.26792750197,0.1842105263157895
320,1040.26792750197,0.1907894736842105
321,1040.26792750197,0.20394736842105265
322,1040.26792750197,0.17763157894736847
323,1040.26792750197,0.2171052631578947
324,1040.26792750197,0.22368421052631582
325,1040.26792750197,0.23026315789473684
326,1043.0654058313635,0.23026315789473684
327,1043.0654058313635,0.23684210526315785
328,1043.0654058313635,0.24342105263157898
329,1043.0654058313635,0.25
330,1043.0654058313635,0.256578947368421
331,1045.8628841607565,0.26973684210526316
332,1045.8628841607565,0.26315789473684215
333,1045.8628841607565,0.256578947368421
334,1045.8628841607565,0.2828947368421053
335,1045.8628841607565,0.2763157894736842
336,1048.6603624901495,0.3157894736842105
337,1048.6603624901495,0.32894736842105265
338,1048.6603624901495,0.3223684210526315
339,1048.6603624901495,0.2828947368421053
340,1048.6603624901495,0.3092105263157895
341,1048.6603624901495,0.2894736842105263
342,1048.6603624901495,0.3026315789473685
343,1048.6603624901495,0.29605263157894735
344,1051.457840819543,0.32894736842105265
345,1051.457840819543,0.3355263157894737
346,1051.457840819543,0.3421052631578947
347,1054.255319148936,0.3421052631578947
348,1054.255319148936,0.35526315789473684
349,1054.255319148936,0.36184210526315785
350,1054.255319148936,0.3486842105263158
351,1057.0527974783295,0.36184210526315785
352,1057.0527974783295,0.368421052631579
353,1059.8502758077225,0.368421052631579
354,1059.8502758077225,0.375
355,1059.8502758077225,0.381578947368421
356,1059.8502758077225,0.39473684210526316
357,1059.8502758077225,0.38815789473684215
358,1062.647754137116,0.4078947368421053
359,1062.647754137116,0.39473684210526316
360,1062.647754137116,0.4013157894736842
361,1065.445232466509,0.4144736842105263
362,1065.445232466509,0.4078947368421053
363,1065.445232466509,0.4407894736842105
364,1065.445232466509,0.42105263157894735
365,1065.445232466509,0.4276315789473685
366,1065.445232466509,0.4342105263157895
367,1068.2427107959024,0.4407894736842105
368,1068.2427107959024,0.4473684210526315
369,1068.2427107959024,0.4671052631578947
370,1068.2427107959024,0.4605263157894737
371,1068.2427107959024,0.45394736842105265
372,1071.0401891252955,0.48026315789473684
373,1071.0401891252955,0.493421052631579
374,1071.0401891252955,0.4671052631578947
375,1071.0401891252955,0.4736842105263158
376,1071.0401891252955,0.48684210526315785
377,1071.0401891252955,0.5
378,1073.837667454689,0.5526315789473684
379,1073.837667454689,0.5394736842105263
380,1073.837667454689,0.5592105263157895
381,1073.837667454689,0.5328947368421053
382,1073.837667454689,0.5197368421052632
383,1073.837667454689,0.506578947368421
384,1073.837667454689,0.513157894736842
385,1073.837667454689,0.5460526315789473
386,1073.837667454689,0.5
387,1073.837667454689,0.5263157894736843
388,1076.635145784082,0.5723684210526316
389,1076.635145784082,0.5657894736842105
390,1076.635145784082,0.5855263157894737
391,1076.635145784082,0.5986842105263157
392,1076.635145784082,0.5789473684210527
393,1076.635145784082,0.5921052631578947
394,1076.635145784082,0.5592105263157895
395,1079.432624113475,0.6578947368421053
396,1079.432624113475,0.5986842105263157
397,1079.432624113475,0.6513157894736843
398,1079.432624113475,0.611842105263158
399,1079.432624113475,0.6052631578947368
400,1079.432624113475,0.638157894736842
401,1079.432624113475,0.6644736842105263
402,1079.432624113475,0.6447368421052632
403,1079.432624113475,0.625
404,1079.432624113475,0.618421052631579
405,1079.432624113475,0.631578947368421
406,1082.2301024428684,0.6644736842105263
407,1082.2301024428684,0.6710526315789473
408,1082.2301024428684,0.6842105263157895
409,1082.2301024428684,0.6907894736842105
410,1082.2301024428684,0.6973684210526316
411,1082.2301024428684,0.6776315789473684
412,1085.0275807722614,0.756578947368421
413,1085.0275807722614,0.75
414,1085.0275807722614,0.6973684210526316
415,1085.0275807722614,0.7039473684210527
416,1085.0275807722614,0.7302631578947368
417,1085.0275807722614,0.7236842105263157
418,1085.0275807722614,0.743421052631579
419,1085.0275807722614,0.7171052631578947
420,1085.0275807722614,0.736842105263158
421,1085.0275807722614,0.7105263157894737
422,1087.825059101655,0.7763157894736842
423,1087.825059101655,0.756578947368421
424,1087.825059101655,0.7828947368421053
425,1087.825059101655,0.7894736842105263
426,1087.825059101655,0.7697368421052632
427,1087.825059101655,0.7631578947368421
428,1090.622537431048,0.8421052631578947
429,1090.622537431048,0.8355263157894737
430,1090.622537431048,0.8157894736842105
431,1090.622537431048,0.8289473684210527
432,1090.622537431048,0.8223684210526316
433,1090.622537431048,0.8092105263157895
434,1090.622537431048,0.7960526315789473
435,1090.622537431048,0.8026315789473684
436,1090.622537431048,0.7894736842105263
437,1093.4200157604414,0.8486842105263158
438,1093.4200157604414,0.8552631578947368
439,1093.4200157604414,0.8618421052631579
440,1093.4200157604414,0.868421052631579
441,1093.4200157604414,0.8421052631578947
442,1096.2174940898344,0.9210526315789473
443,1096.2174940898344,0.868421052631579
444,1096.2174940898344,0.9144736842105263
445,1096.2174940898344,0.9013157894736842
446,1096.2174940898344,0.8947368421052632
447,1096.2174940898344,0.8881578947368421
448,1096.2174940898344,0.9078947368421053
449,1096.2174940898344,0.881578947368421
450,1096.2174940898344,0.875
451,1099.014972419228,0.9473684210526316
452,1099.014972419228,0.9407894736842105
453,1099.014972419228,0.9342105263157895
454,1099.014972419228,0.9210526315789473
455,1099.014972419228,0.9276315789473684
456,1101.812450748621,0.9671052631578947
457,1101.812450748621,0.9473684210526316
458,1101.812450748621,0.9605263157894737
459,1101.812450748621,0.9539473684210527
460,1104.6099290780144,1.0
461,1104.6099290780144,0.9868421052631579
462,1104.6099290780144,0.9671052631578947
463,1104.6099290780144,0.9736842105263158
464,1104.6099290780144,0.9802631578947368
465,1104.6099290780144,0.993421052631579
466,1110.2048857368004,1.0
467,1110.2048857368004,0.9736842105263158
468,1110.2048857368004,0.9802631578947368
469,1110.2048857368004,0.9868421052631579
470,1110.2048857368004,0.993421052631579
471,1113.0023640661939,0.9539473684210527
