,wavenumbers,absorbance
0,452.797478329393,0.02631578947368418
1,455.5949566587865,0.02631578947368418
2,458.3924349881795,0.02631578947368418
3,461.189913317573,0.019736842105263164
4,461.189913317573,0.02631578947368418
5,463.987391646966,0.019736842105263164
6,463.987391646966,0.02631578947368418
7,466.78486997635946,0.019736842105263164
8,466.78486997635946,0.02631578947368418
9,469.5823483057525,0.02631578947368418
10,472.37982663514595,0.02631578947368418
11,475.17730496453896,0.02631578947368418
12,477.97478329393243,0.02631578947368418
13,480.77226162332545,0.02631578947368418
14,483.56973995271846,0.02631578947368418
15,486.36721828211193,0.02631578947368418
16,486.36721828211193,0.03289473684210531
17,489.16469661150495,0.03289473684210531
18,491.9621749408984,0.03289473684210531
19,494.75965327029144,0.03289473684210531
20,497.5571315996849,0.03289473684210531
21,500.3546099290779,0.03289473684210531
22,503.1520882584714,0.03289473684210531
23,505.9495665878644,0.03289473684210531
24,508.7470449172579,0.03289473684210531
25,511.5445232466509,0.03289473684210531
26,514.3420015760439,0.03289473684210531
27,514.3420015760439,0.02631578947368418
28,517.1394799054374,0.02631578947368418
29,519.9369582348304,0.02631578947368418
30,522.7344365642239,0.02631578947368418
31,525.5319148936169,0.02631578947368418
32,528.3293932230104,0.02631578947368418
33,531.1268715524034,0.02631578947368418
34,533.9243498817968,0.02631578947368418
35,536.7218282111899,0.02631578947368418
36,539.5193065405833,0.02631578947368418
37,542.3167848699763,0.02631578947368418
38,545.1142631993694,0.02631578947368418
39,547.9117415287628,0.03289473684210531
40,547.9117415287628,0.02631578947368418
41,550.7092198581558,0.02631578947368418
42,550.7092198581558,0.03289473684210531
43,553.5066981875493,0.02631578947368418
44,556.3041765169423,0.02631578947368418
45,559.1016548463358,0.02631578947368418
46,561.8991331757288,0.02631578947368418
47,564.6966115051223,0.02631578947368418
48,567.4940898345153,0.02631578947368418
49,570.2915681639088,0.03289473684210531
50,570.2915681639088,0.02631578947368418
51,573.0890464933018,0.03289473684210531
52,575.8865248226948,0.03289473684210531
53,575.8865248226948,0.03947368421052633
54,578.6840031520883,0.03947368421052633
55,581.4814814814813,0.03289473684210531
56,581.4814814814813,0.03947368421052633
57,584.2789598108748,0.03289473684210531
58,587.0764381402678,0.03289473684210531
59,589.8739164696613,0.03289473684210531
60,589.8739164696613,0.02631578947368418
61,592.6713947990543,0.02631578947368418
62,595.4688731284477,0.019736842105263164
63,595.4688731284477,0.02631578947368418
64,598.2663514578408,0.019736842105263164
65,601.0638297872342,0.019736842105263164
66,603.8613081166272,0.019736842105263164
67,606.6587864460207,0.02631578947368418
68,606.6587864460207,0.019736842105263164
69,609.4562647754137,0.02631578947368418
70,609.4562647754137,0.03289473684210531
71,612.2537431048067,0.03289473684210531
72,612.2537431048067,0.03947368421052633
73,612.2537431048067,0.046052631578947345
74,612.2537431048067,0.052631578947368474
75,615.0512214342002,0.052631578947368474
76,615.0512214342002,0.07236842105263153
77,615.0512214342002,0.05921052631578949
78,615.0512214342002,0.06578947368421051
79,617.8486997635932,0.07894736842105265
80,617.8486997635932,0.07236842105263153
81,617.8486997635932,0.09210526315789469
82,617.8486997635932,0.08552631578947367
83,620.6461780929867,0.13157894736842102
84,620.6461780929867,0.125
85,620.6461780929867,0.11842105263157898
86,620.6461780929867,0.10526315789473684
87,620.6461780929867,0.11184210526315785
88,620.6461780929867,0.09868421052631582
89,623.4436564223797,0.13157894736842102
90,623.4436564223797,0.1578947368421053
91,623.4436564223797,0.13815789473684215
92,623.4436564223797,0.15131578947368418
93,623.4436564223797,0.14473684210526316
94,626.2411347517732,0.14473684210526316
95,626.2411347517732,0.1578947368421053
96,626.2411347517732,0.15131578947368418
97,629.0386130811662,0.13157894736842102
98,629.0386130811662,0.125
99,629.0386130811662,0.13815789473684215
100,629.0386130811662,0.11842105263157898
101,629.0386130811662,0.14473684210526316
102,631.8360914105597,0.07894736842105265
103,631.8360914105597,0.10526315789473684
104,631.8360914105597,0.06578947368421051
105,631.8360914105597,0.08552631578947367
106,631.8360914105597,0.07236842105263153
107,631.8360914105597,0.09868421052631582
108,631.8360914105597,0.09210526315789469
109,631.8360914105597,0.11184210526315785
110,631.8360914105597,0.11842105263157898
111,634.6335697399527,0.052631578947368474
112,634.6335697399527,0.06578947368421051
113,634.6335697399527,0.05921052631578949
114,637.4310480693462,0.03289473684210531
115,637.4310480693462,0.052631578947368474
116,637.4310480693462,0.03947368421052633
117,637.4310480693462,0.046052631578947345
118,640.2285263987392,0.03289473684210531
119,643.0260047281322,0.03289473684210531
120,645.8234830575257,0.03289473684210531
121,645.8234830575257,0.03947368421052633
122,648.6209613869187,0.052631578947368474
123,648.6209613869187,0.05921052631578949
124,648.6209613869187,0.03947368421052633
125,648.6209613869187,0.046052631578947345
126,651.4184397163122,0.07236842105263153
127,651.4184397163122,0.06578947368421051
128,651.4184397163122,0.05921052631578949
129,651.4184397163122,0.07894736842105265
130,654.2159180457052,0.07894736842105265
131,654.2159180457052,0.07236842105263153
132,654.2159180457052,0.052631578947368474
133,654.2159180457052,0.06578947368421051
134,654.2159180457052,0.05921052631578949
135,657.0133963750986,0.052631578947368474
136,657.0133963750986,0.03947368421052633
137,657.0133963750986,0.046052631578947345
138,659.8108747044917,0.03947368421052633
139,662.6083530338851,0.03947368421052633
140,662.6083530338851,0.046052631578947345
141,665.4058313632781,0.052631578947368474
142,665.4058313632781,0.046052631578947345
143,668.2033096926716,0.06578947368421051
144,668.2033096926716,0.07236842105263153
145,668.2033096926716,0.052631578947368474
146,668.2033096926716,0.05921052631578949
147,671.0007880220646,0.07236842105263153
148,671.0007880220646,0.07894736842105265
149,673.7982663514576,0.07894736842105265
150,673.7982663514576,0.07236842105263153
151,676.5957446808511,0.05921052631578949
152,676.5957446808511,0.052631578947368474
153,676.5957446808511,0.06578947368421051
154,676.5957446808511,0.07236842105263153
155,679.3932230102441,0.046052631578947345
156,679.3932230102441,0.052631578947368474
157,682.1907013396376,0.046052631578947345
158,682.1907013396376,0.03947368421052633
159,684.9881796690306,0.03947368421052633
160,687.7856579984241,0.03947368421052633
161,690.5831363278171,0.03947368421052633
162,693.3806146572106,0.046052631578947345
163,693.3806146572106,0.03947368421052633
164,696.1780929866036,0.052631578947368474
165,696.1780929866036,0.046052631578947345
166,698.9755713159971,0.06578947368421051
167,698.9755713159971,0.08552631578947367
168,698.9755713159971,0.07894736842105265
169,698.9755713159971,0.05921052631578949
170,698.9755713159971,0.07236842105263153
171,698.9755713159971,0.052631578947368474
172,701.7730496453901,0.09210526315789469
173,701.7730496453901,0.08552631578947367
174,701.7730496453901,0.09868421052631582
175,701.7730496453901,0.10526315789473684
176,704.5705279747831,0.125
177,704.5705279747831,0.11842105263157898
178,704.5705279747831,0.10526315789473684
179,704.5705279747831,0.11184210526315785
180,707.3680063041766,0.13815789473684215
181,707.3680063041766,0.13157894736842102
182,707.3680063041766,0.125
183,707.3680063041766,0.14473684210526316
184,707.3680063041766,0.15131578947368418
185,710.1654846335696,0.15131578947368418
186,710.1654846335696,0.1578947368421053
187,712.962962962963,0.16447368421052633
188,712.962962962963,0.1578947368421053
189,715.7604412923561,0.17105263157894735
190,715.7604412923561,0.1842105263157895
191,715.7604412923561,0.17763157894736847
192,715.7604412923561,0.16447368421052633
193,718.5579196217495,0.29605263157894735
194,718.5579196217495,0.3026315789473685
195,718.5579196217495,0.21052631578947367
196,718.5579196217495,0.24342105263157898
197,718.5579196217495,0.3092105263157895
198,718.5579196217495,0.25
199,718.5579196217495,0.22368421052631582
200,718.5579196217495,0.26315789473684215
201,718.5579196217495,0.3157894736842105
202,718.5579196217495,0.3223684210526315
203,718.5579196217495,0.32894736842105265
204,718.5579196217495,0.20394736842105265
205,718.5579196217495,0.3421052631578947
206,718.5579196217495,0.256578947368421
207,718.5579196217495,0.3486842105263158
208,718.5579196217495,0.3355263157894737
209,718.5579196217495,0.1842105263157895
210,718.5579196217495,0.1907894736842105
211,718.5579196217495,0.23026315789473684
212,718.5579196217495,0.2171052631578947
213,718.5579196217495,0.2763157894736842
214,718.5579196217495,0.26973684210526316
215,718.5579196217495,0.23684210526315785
216,718.5579196217495,0.19736842105263153
217,718.5579196217495,0.2894736842105263
218,718.5579196217495,0.2828947368421053
219,721.3553979511425,0.4473684210526315
220,721.3553979511425,0.4605263157894737
221,721.3553979511425,0.39473684210526316
222,721.3553979511425,0.48026315789473684
223,721.3553979511425,0.4342105263157895
224,721.3553979511425,0.4144736842105263
225,721.3553979511425,0.4276315789473685
226,721.3553979511425,0.4736842105263158
227,721.3553979511425,0.4407894736842105
228,721.3553979511425,0.38815789473684215
229,721.3553979511425,0.375
230,721.3553979511425,0.42105263157894735
231,721.3553979511425,0.368421052631579
232,721.3553979511425,0.48684210526315785
233,721.3553979511425,0.3486842105263158
234,721.3553979511425,0.4671052631578947
235,721.3553979511425,0.4078947368421053
236,721.3553979511425,0.381578947368421
237,721.3553979511425,0.45394736842105265
238,721.3553979511425,0.35526315789473684
239,721.3553979511425,0.4013157894736842
240,721.3553979511425,0.36184210526315785
241,724.152876280536,0.4736842105263158
242,724.152876280536,0.48026315789473684
243,724.152876280536,0.513157894736842
244,724.152876280536,0.5
245,724.152876280536,0.5197368421052632
246,724.152876280536,0.48684210526315785
247,724.152876280536,0.493421052631579
248,724.152876280536,0.4671052631578947
249,724.152876280536,0.506578947368421
250,726.950354609929,0.4407894736842105
251,726.950354609929,0.48026315789473684
252,726.950354609929,0.4736842105263158
253,726.950354609929,0.48684210526315785
254,726.950354609929,0.4605263157894737
255,726.950354609929,0.4473684210526315
256,726.950354609929,0.45394736842105265
257,726.950354609929,0.4671052631578947
258,726.950354609929,0.493421052631579
259,729.7478329393225,0.4276315789473685
260,729.7478329393225,0.4078947368421053
261,729.7478329393225,0.4342105263157895
262,729.7478329393225,0.4144736842105263
263,729.7478329393225,0.381578947368421
264,729.7478329393225,0.38815789473684215
265,729.7478329393225,0.4013157894736842
266,729.7478329393225,0.4407894736842105
267,729.7478329393225,0.375
268,729.7478329393225,0.39473684210526316
269,729.7478329393225,0.42105263157894735
270,732.5453112687155,0.375
271,732.5453112687155,0.368421052631579
272,732.5453112687155,0.2894736842105263
273,732.5453112687155,0.3026315789473685
274,732.5453112687155,0.24342105263157898
275,732.5453112687155,0.35526315789473684
276,732.5453112687155,0.29605263157894735
277,732.5453112687155,0.36184210526315785
278,732.5453112687155,0.3092105263157895
279,732.5453112687155,0.3486842105263158
280,732.5453112687155,0.3355263157894737
281,732.5453112687155,0.256578947368421
282,732.5453112687155,0.3421052631578947
283,732.5453112687155,0.26973684210526316
284,732.5453112687155,0.25
285,732.5453112687155,0.3223684210526315
286,732.5453112687155,0.32894736842105265
287,732.5453112687155,0.2828947368421053
288,732.5453112687155,0.3157894736842105
289,732.5453112687155,0.26315789473684215
290,732.5453112687155,0.23684210526315785
291,732.5453112687155,0.2763157894736842
292,735.3427895981085,0.1907894736842105
293,735.3427895981085,0.2171052631578947
294,735.3427895981085,0.19736842105263153
295,735.3427895981085,0.23026315789473684
296,735.3427895981085,0.1842105263157895
297,735.3427895981085,0.21052631578947367
298,735.3427895981085,0.23684210526315785
299,735.3427895981085,0.20394736842105265
300,735.3427895981085,0.22368421052631582
301,735.3427895981085,0.17105263157894735
302,735.3427895981085,0.17763157894736847
303,738.140267927502,0.09868421052631582
304,738.140267927502,0.07236842105263153
305,738.140267927502,0.17105263157894735
306,738.140267927502,0.15131578947368418
307,738.140267927502,0.11842105263157898
308,738.140267927502,0.07894736842105265
309,738.140267927502,0.14473684210526316
310,738.140267927502,0.10526315789473684
311,738.140267927502,0.08552631578947367
312,738.140267927502,0.13157894736842102
313,738.140267927502,0.13815789473684215
314,738.140267927502,0.125
315,738.140267927502,0.16447368421052633
316,738.140267927502,0.11184210526315785
317,738.140267927502,0.1578947368421053
318,738.140267927502,0.09210526315789469
319,738.140267927502,0.06578947368421051
320,740.937746256895,0.06578947368421051
321,740.937746256895,0.05921052631578949
322,740.937746256895,0.046052631578947345
323,740.937746256895,0.052631578947368474
324,743.7352245862885,0.046052631578947345
325,743.7352245862885,0.03947368421052633
326,746.5327029156815,0.046052631578947345
327,746.5327029156815,0.03947368421052633
328,746.5327029156815,0.052631578947368474
329,746.5327029156815,0.05921052631578949
330,749.330181245075,0.06578947368421051
331,749.330181245075,0.07236842105263153
332,749.330181245075,0.05921052631578949
333,752.127659574468,0.046052631578947345
334,752.127659574468,0.052631578947368474
335,752.127659574468,0.05921052631578949
336,754.9251379038615,0.03289473684210531
337,754.9251379038615,0.046052631578947345
338,754.9251379038615,0.02631578947368418
339,754.9251379038615,0.03947368421052633
340,757.7226162332545,0.02631578947368418
341,760.520094562648,0.019736842105263164
342,760.520094562648,0.02631578947368418
343,763.317572892041,0.019736842105263164
344,766.115051221434,0.019736842105263164
345,768.9125295508275,0.019736842105263164
346,771.7100078802205,0.019736842105263164
347,774.507486209614,0.02631578947368418
348,774.507486209614,0.019736842105263164
349,777.304964539007,0.03289473684210531
350,777.304964539007,0.02631578947368418
351,780.1024428684004,0.03289473684210531
352,780.1024428684004,0.02631578947368418
353,782.8999211977934,0.02631578947368418
354,782.8999211977934,0.019736842105263164
355,785.6973995271869,0.019736842105263164
356,788.4948778565799,0.019736842105263164
357,791.2923561859734,0.019736842105263164
358,794.0898345153664,0.02631578947368418
359,794.0898345153664,0.019736842105263164
360,796.8873128447594,0.02631578947368418
361,799.6847911741529,0.02631578947368418
362,802.4822695035459,0.02631578947368418
363,805.2797478329394,0.03289473684210531
364,805.2797478329394,0.02631578947368418
365,808.0772261623324,0.03289473684210531
366,810.8747044917259,0.03289473684210531
367,813.6721828211189,0.03289473684210531
368,813.6721828211189,0.03947368421052633
369,816.4696611505124,0.03947368421052633
370,819.2671394799054,0.046052631578947345
371,819.2671394799054,0.052631578947368474
372,819.2671394799054,0.03947368421052633
373,822.0646178092989,0.052631578947368474
374,824.8620961386919,0.052631578947368474
375,827.6595744680849,0.052631578947368474
376,830.4570527974784,0.052631578947368474
377,830.4570527974784,0.046052631578947345
378,833.2545311268714,0.046052631578947345
379,836.0520094562648,0.046052631578947345
380,838.8494877856579,0.046052631578947345
381,841.6469661150513,0.052631578947368474
382,841.6469661150513,0.046052631578947345
383,844.4444444444443,0.052631578947368474
384,847.2419227738378,0.052631578947368474
385,847.2419227738378,0.05921052631578949
386,850.0394011032308,0.05921052631578949
387,850.0394011032308,0.06578947368421051
388,852.8368794326243,0.07236842105263153
389,852.8368794326243,0.06578947368421051
390,855.6343577620173,0.07894736842105265
391,855.6343577620173,0.07236842105263153
392,858.4318360914103,0.07894736842105265
393,861.2293144208038,0.07894736842105265
394,861.2293144208038,0.08552631578947367
395,864.0267927501968,0.08552631578947367
396,866.8242710795903,0.07894736842105265
397,866.8242710795903,0.08552631578947367
398,869.6217494089833,0.07894736842105265
399,872.4192277383768,0.07236842105263153
400,872.4192277383768,0.07894736842105265
401,875.2167060677698,0.06578947368421051
402,875.2167060677698,0.07236842105263153
403,878.0141843971633,0.06578947368421051
404,878.0141843971633,0.05921052631578949
405,880.8116627265563,0.052631578947368474
406,880.8116627265563,0.05921052631578949
407,883.6091410559497,0.052631578947368474
408,886.4066193853428,0.052631578947368474
409,886.4066193853428,0.046052631578947345
410,889.2040977147362,0.046052631578947345
411,892.0015760441293,0.052631578947368474
412,892.0015760441293,0.046052631578947345
413,894.7990543735223,0.052631578947368474
414,897.5965327029157,0.05921052631578949
415,897.5965327029157,0.06578947368421051
416,897.5965327029157,0.052631578947368474
417,900.3940110323088,0.06578947368421051
418,903.1914893617022,0.07236842105263153
419,903.1914893617022,0.06578947368421051
420,905.9889676910952,0.07236842105263153
421,908.7864460204887,0.07236842105263153
422,908.7864460204887,0.07894736842105265
423,911.5839243498817,0.07894736842105265
424,911.5839243498817,0.08552631578947367
425,914.3814026792752,0.08552631578947367
426,917.1788810086682,0.08552631578947367
427,917.1788810086682,0.09210526315789469
428,919.9763593380617,0.09210526315789469
429,922.7738376674547,0.09868421052631582
430,922.7738376674547,0.09210526315789469
431,925.5713159968477,0.09868421052631582
432,925.5713159968477,0.10526315789473684
433,928.3687943262412,0.10526315789473684
434,931.1662726556342,0.11184210526315785
435,931.1662726556342,0.10526315789473684
436,933.9637509850277,0.11184210526315785
437,936.7612293144207,0.11184210526315785
438,936.7612293144207,0.10526315789473684
439,939.5587076438142,0.10526315789473684
440,942.3561859732072,0.10526315789473684
441,945.1536643026006,0.09868421052631582
442,945.1536643026006,0.10526315789473684
443,947.9511426319937,0.09868421052631582
444,947.9511426319937,0.09210526315789469
445,950.7486209613871,0.08552631578947367
446,950.7486209613871,0.09210526315789469
447,953.5460992907801,0.08552631578947367
448,953.5460992907801,0.07236842105263153
449,953.5460992907801,0.07894736842105265
450,956.3435776201732,0.07236842105263153
451,956.3435776201732,0.06578947368421051
452,959.1410559495666,0.06578947368421051
453,959.1410559495666,0.05921052631578949
454,961.9385342789597,0.052631578947368474
455,961.9385342789597,0.05921052631578949
456,964.7360126083531,0.046052631578947345
457,964.7360126083531,0.052631578947368474
458,967.5334909377461,0.046052631578947345
459,967.5334909377461,0.052631578947368474
460,970.3309692671396,0.052631578947368474
461,973.1284475965326,0.05921052631578949
462,973.1284475965326,0.052631578947368474
463,975.9259259259261,0.06578947368421051
464,975.9259259259261,0.05921052631578949
465,978.7234042553191,0.06578947368421051
466,978.7234042553191,0.07236842105263153
467,981.5208825847126,0.07236842105263153
468,984.3183609141056,0.07894736842105265
469,984.3183609141056,0.07236842105263153
470,987.1158392434986,0.07894736842105265
