,wavenumbers,absorbance
0,452.797478329393,0.02631578947368418
1,455.5949566587865,0.02631578947368418
2,458.3924349881795,0.02631578947368418
3,461.189913317573,0.02631578947368418
4,461.189913317573,0.03289473684210531
5,463.987391646966,0.03289473684210531
6,466.78486997635946,0.03289473684210531
7,466.78486997635946,0.02631578947368418
8,469.5823483057525,0.02631578947368418
9,472.37982663514595,0.02631578947368418
10,475.17730496453896,0.02631578947368418
11,477.97478329393243,0.019736842105263164
12,477.97478329393243,0.02631578947368418
13,480.77226162332545,0.019736842105263164
14,483.56973995271846,0.019736842105263164
15,486.36721828211193,0.019736842105263164
16,489.16469661150495,0.019736842105263164
17,491.9621749408984,0.019736842105263164
18,494.75965327029144,0.019736842105263164
19,497.5571315996849,0.019736842105263164
20,500.3546099290779,0.019736842105263164
21,503.1520882584714,0.019736842105263164
22,505.9495665878644,0.019736842105263164
23,508.7470449172579,0.019736842105263164
24,511.5445232466509,0.019736842105263164
25,514.3420015760439,0.019736842105263164
26,517.1394799054374,0.019736842105263164
27,519.9369582348304,0.019736842105263164
28,522.7344365642239,0.019736842105263164
29,525.5319148936169,0.019736842105263164
30,528.3293932230104,0.019736842105263164
31,531.1268715524034,0.019736842105263164
32,533.9243498817968,0.019736842105263164
33,536.7218282111899,0.019736842105263164
34,539.5193065405833,0.019736842105263164
35,542.3167848699763,0.019736842105263164
36,545.1142631993694,0.019736842105263164
37,547.9117415287628,0.019736842105263164
38,550.7092198581558,0.019736842105263164
39,553.5066981875493,0.019736842105263164
40,556.3041765169423,0.019736842105263164
41,559.1016548463358,0.019736842105263164
42,561.8991331757288,0.019736842105263164
43,564.6966115051223,0.019736842105263164
44,567.4940898345153,0.019736842105263164
45,570.2915681639088,0.019736842105263164
46,573.0890464933018,0.019736842105263164
47,575.8865248226948,0.019736842105263164
48,578.6840031520883,0.019736842105263164
49,581.4814814814813,0.019736842105263164
50,584.2789598108748,0.019736842105263164
51,587.0764381402678,0.019736842105263164
52,589.8739164696613,0.019736842105263164
53,592.6713947990543,0.019736842105263164
54,595.4688731284477,0.019736842105263164
55,598.2663514578408,0.019736842105263164
56,601.0638297872342,0.019736842105263164
57,603.8613081166272,0.019736842105263164
58,606.6587864460207,0.019736842105263164
59,609.4562647754137,0.019736842105263164
60,612.2537431048067,0.019736842105263164
61,615.0512214342002,0.019736842105263164
62,617.8486997635932,0.019736842105263164
63,620.6461780929867,0.019736842105263164
64,623.4436564223797,0.019736842105263164
65,626.2411347517732,0.019736842105263164
66,629.0386130811662,0.019736842105263164
67,631.8360914105597,0.019736842105263164
68,634.6335697399527,0.019736842105263164
69,637.4310480693462,0.019736842105263164
70,640.2285263987392,0.019736842105263164
71,643.0260047281322,0.019736842105263164
72,645.8234830575257,0.019736842105263164
73,648.6209613869187,0.019736842105263164
74,651.4184397163122,0.019736842105263164
75,654.2159180457052,0.019736842105263164
76,657.0133963750986,0.019736842105263164
77,659.8108747044917,0.019736842105263164
78,662.6083530338851,0.019736842105263164
79,665.4058313632781,0.019736842105263164
80,668.2033096926716,0.019736842105263164
81,671.0007880220646,0.019736842105263164
82,673.7982663514576,0.019736842105263164
83,676.5957446808511,0.019736842105263164
84,679.3932230102441,0.019736842105263164
85,682.1907013396376,0.019736842105263164
86,684.9881796690306,0.019736842105263164
87,687.7856579984241,0.019736842105263164
88,690.5831363278171,0.019736842105263164
89,693.3806146572106,0.019736842105263164
90,696.1780929866036,0.019736842105263164
91,696.1780929866036,0.02631578947368418
92,698.9755713159971,0.02631578947368418
93,701.7730496453901,0.02631578947368418
94,704.5705279747831,0.02631578947368418
95,707.3680063041766,0.02631578947368418
96,710.1654846335696,0.02631578947368418
97,710.1654846335696,0.03289473684210531
98,712.962962962963,0.03947368421052633
99,712.962962962963,0.03289473684210531
100,715.7604412923561,0.046052631578947345
101,715.7604412923561,0.03947368421052633
102,718.5579196217495,0.046052631578947345
103,721.3553979511425,0.03947368421052633
104,721.3553979511425,0.046052631578947345
105,724.152876280536,0.03947368421052633
106,726.950354609929,0.03947368421052633
107,726.950354609929,0.03289473684210531
108,729.7478329393225,0.03289473684210531
109,732.5453112687155,0.03289473684210531
110,735.3427895981085,0.03289473684210531
111,738.140267927502,0.03289473684210531
112,738.140267927502,0.02631578947368418
113,740.937746256895,0.02631578947368418
114,743.7352245862885,0.02631578947368418
115,746.5327029156815,0.02631578947368418
116,749.330181245075,0.02631578947368418
117,752.127659574468,0.02631578947368418
118,754.9251379038615,0.02631578947368418
119,754.9251379038615,0.019736842105263164
120,757.7226162332545,0.019736842105263164
121,760.520094562648,0.019736842105263164
122,763.317572892041,0.019736842105263164
123,766.115051221434,0.019736842105263164
124,768.9125295508275,0.019736842105263164
125,771.7100078802205,0.019736842105263164
126,774.507486209614,0.019736842105263164
127,777.304964539007,0.019736842105263164
128,780.1024428684004,0.019736842105263164
129,782.8999211977934,0.019736842105263164
130,785.6973995271869,0.019736842105263164
131,788.4948778565799,0.019736842105263164
132,791.2923561859734,0.019736842105263164
133,794.0898345153664,0.019736842105263164
134,796.8873128447594,0.019736842105263164
135,799.6847911741529,0.02631578947368418
136,799.6847911741529,0.019736842105263164
137,802.4822695035459,0.02631578947368418
138,805.2797478329394,0.02631578947368418
139,808.0772261623324,0.02631578947368418
140,810.8747044917259,0.02631578947368418
141,813.6721828211189,0.02631578947368418
142,813.6721828211189,0.019736842105263164
143,816.4696611505124,0.019736842105263164
144,819.2671394799054,0.019736842105263164
145,822.0646178092989,0.019736842105263164
146,824.8620961386919,0.019736842105263164
147,827.6595744680849,0.019736842105263164
148,830.4570527974784,0.019736842105263164
149,833.2545311268714,0.019736842105263164
150,836.0520094562648,0.019736842105263164
151,838.8494877856579,0.019736842105263164
152,841.6469661150513,0.019736842105263164
153,844.4444444444443,0.019736842105263164
154,847.2419227738378,0.019736842105263164
155,850.0394011032308,0.019736842105263164
156,852.8368794326243,0.019736842105263164
157,855.6343577620173,0.019736842105263164
158,858.4318360914103,0.019736842105263164
159,861.2293144208038,0.019736842105263164
160,864.0267927501968,0.019736842105263164
161,866.8242710795903,0.019736842105263164
162,869.6217494089833,0.019736842105263164
163,872.4192277383768,0.019736842105263164
164,875.2167060677698,0.019736842105263164
165,878.0141843971633,0.019736842105263164
166,880.8116627265563,0.019736842105263164
167,883.6091410559497,0.019736842105263164
168,886.4066193853428,0.019736842105263164
169,889.2040977147362,0.019736842105263164
170,892.0015760441293,0.019736842105263164
171,894.7990543735223,0.019736842105263164
172,897.5965327029157,0.019736842105263164
173,900.3940110323088,0.019736842105263164
174,903.1914893617022,0.02631578947368418
175,903.1914893617022,0.019736842105263164
176,905.9889676910952,0.02631578947368418
177,908.7864460204887,0.02631578947368418
178,911.5839243498817,0.02631578947368418
179,914.3814026792752,0.02631578947368418
180,917.1788810086682,0.02631578947368418
181,919.9763593380617,0.02631578947368418
182,922.7738376674547,0.02631578947368418
183,925.5713159968477,0.02631578947368418
184,928.3687943262412,0.02631578947368418
185,928.3687943262412,0.03289473684210531
186,931.1662726556342,0.03289473684210531
187,933.9637509850277,0.03289473684210531
188,936.7612293144207,0.03289473684210531
189,939.5587076438142,0.03289473684210531
190,942.3561859732072,0.03289473684210531
191,945.1536643026006,0.03289473684210531
192,947.9511426319937,0.03289473684210531
193,950.7486209613871,0.03289473684210531
194,953.5460992907801,0.03289473684210531
195,956.3435776201732,0.03289473684210531
196,959.1410559495666,0.03289473684210531
197,961.9385342789597,0.03289473684210531
198,964.7360126083531,0.03289473684210531
199,967.5334909377461,0.03289473684210531
200,970.3309692671396,0.03289473684210531
201,973.1284475965326,0.03289473684210531
202,973.1284475965326,0.02631578947368418
203,975.9259259259261,0.02631578947368418
204,978.7234042553191,0.02631578947368418
205,981.5208825847126,0.02631578947368418
206,984.3183609141056,0.02631578947368418
207,987.1158392434986,0.03289473684210531
208,987.1158392434986,0.02631578947368418
209,989.9133175728921,0.03289473684210531
210,992.7107959022851,0.03289473684210531
211,995.5082742316786,0.03289473684210531
212,998.3057525610716,0.03289473684210531
213,1001.103230890465,0.03289473684210531
214,1003.9007092198581,0.03289473684210531
215,1006.6981875492515,0.03289473684210531
216,1009.4956658786446,0.03289473684210531
217,1012.293144208038,0.03289473684210531
218,1015.090622537431,0.03289473684210531
219,1017.8881008668241,0.03289473684210531
220,1020.6855791962175,0.03947368421052633
221,1020.6855791962175,0.03289473684210531
222,1023.4830575256105,0.03947368421052633
223,1026.280535855004,0.03947368421052633
224,1029.078014184397,0.03947368421052633
225,1031.8754925137905,0.03947368421052633
226,1034.6729708431835,0.03947368421052633
227,1037.470449172577,0.03947368421052633
228,1040.26792750197,0.03947368421052633
229,1043.0654058313635,0.03947368421052633
230,1045.8628841607565,0.03947368421052633
231,1048.6603624901495,0.03947368421052633
232,1051.457840819543,0.03947368421052633
233,1054.255319148936,0.03947368421052633
234,1057.0527974783295,0.03947368421052633
235,1059.8502758077225,0.03947368421052633
236,1062.647754137116,0.03947368421052633
237,1065.445232466509,0.046052631578947345
238,1065.445232466509,0.03947368421052633
239,1068.2427107959024,0.046052631578947345
240,1071.0401891252955,0.046052631578947345
241,1073.837667454689,0.046052631578947345
242,1076.635145784082,0.046052631578947345
243,1079.432624113475,0.046052631578947345
244,1082.2301024428684,0.046052631578947345
245,1085.0275807722614,0.046052631578947345
246,1087.825059101655,0.046052631578947345
247,1090.622537431048,0.046052631578947345
248,1093.4200157604414,0.046052631578947345
249,1096.2174940898344,0.046052631578947345
250,1099.014972419228,0.046052631578947345
251,1101.812450748621,0.046052631578947345
252,1104.6099290780144,0.046052631578947345
253,1107.4074074074074,0.046052631578947345
254,1110.2048857368004,0.052631578947368474
255,1110.2048857368004,0.046052631578947345
256,1113.0023640661939,0.052631578947368474
257,1115.799842395587,0.052631578947368474
258,1115.799842395587,0.046052631578947345
259,1118.5973207249804,0.046052631578947345
260,1121.3947990543734,0.046052631578947345
261,1124.1922773837669,0.046052631578947345
262,1126.9897557131599,0.046052631578947345
263,1129.7872340425533,0.046052631578947345
264,1132.5847123719464,0.046052631578947345
265,1132.5847123719464,0.03947368421052633
266,1135.3821907013398,0.03947368421052633
267,1135.3821907013398,0.046052631578947345
268,1138.1796690307328,0.046052631578947345
269,1140.9771473601263,0.046052631578947345
270,1143.7746256895193,0.046052631578947345
271,1146.5721040189123,0.046052631578947345
272,1149.3695823483058,0.046052631578947345
273,1152.1670606776988,0.03947368421052633
274,1152.1670606776988,0.046052631578947345
275,1154.9645390070923,0.03947368421052633
276,1157.7620173364853,0.03947368421052633
277,1160.5594956658788,0.03947368421052633
278,1163.3569739952718,0.03947368421052633
279,1166.1544523246653,0.03947368421052633
280,1168.9519306540583,0.03947368421052633
281,1171.7494089834518,0.03947368421052633
282,1171.7494089834518,0.03289473684210531
283,1174.5468873128448,0.03289473684210531
284,1177.3443656422378,0.03289473684210531
285,1180.1418439716313,0.03289473684210531
286,1182.9393223010243,0.03289473684210531
287,1185.7368006304177,0.03289473684210531
288,1188.5342789598108,0.03289473684210531
289,1191.3317572892042,0.03289473684210531
290,1194.1292356185972,0.03289473684210531
291,1196.9267139479907,0.03289473684210531
292,1199.7241922773837,0.03289473684210531
293,1202.5216706067772,0.03289473684210531
294,1205.3191489361702,0.03289473684210531
295,1208.1166272655632,0.03289473684210531
296,1210.9141055949567,0.03289473684210531
297,1213.7115839243497,0.03289473684210531
298,1216.5090622537432,0.03289473684210531
299,1219.3065405831362,0.03289473684210531
300,1222.1040189125297,0.03289473684210531
301,1224.9014972419227,0.03289473684210531
302,1227.6989755713162,0.03289473684210531
303,1230.4964539007092,0.03947368421052633
304,1230.4964539007092,0.03289473684210531
305,1233.2939322301027,0.03947368421052633
306,1236.0914105594957,0.03947368421052633
307,1238.8888888888887,0.03947368421052633
308,1241.6863672182822,0.03947368421052633
309,1244.4838455476752,0.03947368421052633
310,1247.2813238770686,0.03947368421052633
311,1250.0788022064617,0.03947368421052633
312,1252.8762805358551,0.03947368421052633
313,1252.8762805358551,0.046052631578947345
314,1255.6737588652481,0.046052631578947345
315,1258.4712371946416,0.03947368421052633
316,1258.4712371946416,0.046052631578947345
317,1261.2687155240346,0.03947368421052633
318,1264.066193853428,0.03947368421052633
319,1266.8636721828211,0.03947368421052633
320,1269.6611505122141,0.03947368421052633
321,1272.4586288416076,0.03947368421052633
322,1275.2561071710006,0.03947368421052633
323,1278.053585500394,0.03947368421052633
324,1280.851063829787,0.03947368421052633
325,1283.6485421591806,0.03947368421052633
326,1286.4460204885736,0.03947368421052633
327,1289.243498817967,0.046052631578947345
328,1289.243498817967,0.03947368421052633
329,1292.04097714736,0.046052631578947345
330,1294.8384554767536,0.046052631578947345
331,1297.6359338061466,0.046052631578947345
332,1300.4334121355396,0.046052631578947345
333,1303.230890464933,0.046052631578947345
334,1303.230890464933,0.03947368421052633
335,1306.028368794326,0.03947368421052633
336,1308.8258471237195,0.03947368421052633
337,1311.6233254531126,0.03947368421052633
338,1314.420803782506,0.03947368421052633
339,1317.218282111899,0.03947368421052633
340,1320.0157604412925,0.03947368421052633
341,1322.8132387706855,0.03947368421052633
342,1325.610717100079,0.03947368421052633
343,1328.408195429472,0.03947368421052633
344,1331.205673758865,0.03947368421052633
345,1334.0031520882585,0.03947368421052633
346,1334.0031520882585,0.046052631578947345
347,1336.8006304176515,0.046052631578947345
348,1339.598108747045,0.046052631578947345
349,1342.395587076438,0.046052631578947345
350,1345.1930654058315,0.046052631578947345
351,1345.1930654058315,0.052631578947368474
352,1347.9905437352245,0.052631578947368474
353,1350.788022064618,0.052631578947368474
354,1353.585500394011,0.052631578947368474
355,1356.3829787234044,0.052631578947368474
356,1356.3829787234044,0.05921052631578949
357,1359.1804570527975,0.05921052631578949
358,1359.1804570527975,0.07236842105263153
359,1359.1804570527975,0.06578947368421051
360,1359.1804570527975,0.07894736842105265
361,1361.9779353821905,0.07894736842105265
362,1361.9779353821905,0.08552631578947367
363,1364.775413711584,0.08552631578947367
364,1367.572892040977,0.09210526315789469
365,1367.572892040977,0.09868421052631582
366,1367.572892040977,0.10526315789473684
367,1367.572892040977,0.08552631578947367
368,1370.3703703703704,0.15131578947368418
369,1370.3703703703704,0.10526315789473684
370,1370.3703703703704,0.13815789473684215
371,1370.3703703703704,0.13157894736842102
372,1370.3703703703704,0.125
373,1370.3703703703704,0.11842105263157898
374,1370.3703703703704,0.11184210526315785
375,1370.3703703703704,0.14473684210526316
376,1373.1678486997635,0.15131578947368418
377,1375.965327029157,0.11842105263157898
378,1375.965327029157,0.13157894736842102
379,1375.965327029157,0.14473684210526316
380,1375.965327029157,0.13815789473684215
381,1375.965327029157,0.125
382,1375.965327029157,0.15131578947368418
383,1375.965327029157,0.11184210526315785
384,1378.76280535855,0.11184210526315785
385,1378.76280535855,0.10526315789473684
386,1378.76280535855,0.09868421052631582
387,1381.5602836879434,0.07894736842105265
388,1381.5602836879434,0.08552631578947367
389,1381.5602836879434,0.09868421052631582
390,1381.5602836879434,0.09210526315789469
391,1384.3577620173364,0.07894736842105265
392,1384.3577620173364,0.05921052631578949
393,1384.3577620173364,0.06578947368421051
394,1384.3577620173364,0.052631578947368474
395,1384.3577620173364,0.07236842105263153
396,1387.15524034673,0.052631578947368474
397,1387.15524034673,0.046052631578947345
398,1389.952718676123,0.046052631578947345
399,1392.750197005516,0.046052631578947345
400,1395.5476753349094,0.046052631578947345
401,1398.3451536643024,0.046052631578947345
402,1401.1426319936959,0.046052631578947345
403,1403.940110323089,0.046052631578947345
404,1406.7375886524824,0.046052631578947345
405,1409.5350669818754,0.046052631578947345
406,1412.3325453112689,0.046052631578947345
407,1415.1300236406619,0.046052631578947345
408,1417.9275019700553,0.046052631578947345
409,1420.7249802994484,0.046052631578947345
410,1420.7249802994484,0.052631578947368474
411,1423.5224586288418,0.052631578947368474
412,1423.5224586288418,0.05921052631578949
413,1426.3199369582348,0.05921052631578949
414,1426.3199369582348,0.07236842105263153
415,1426.3199369582348,0.06578947368421051
416,1429.1174152876279,0.07236842105263153
417,1429.1174152876279,0.07894736842105265
418,1431.9148936170213,0.09868421052631582
419,1431.9148936170213,0.07894736842105265
420,1431.9148936170213,0.08552631578947367
421,1431.9148936170213,0.09210526315789469
422,1434.7123719464144,0.11184210526315785
423,1434.7123719464144,0.09868421052631582
424,1434.7123719464144,0.10526315789473684
425,1437.5098502758078,0.11184210526315785
426,1437.5098502758078,0.125
427,1437.5098502758078,0.13815789473684215
428,1437.5098502758078,0.13157894736842102
429,1437.5098502758078,0.11842105263157898
430,1440.3073286052008,0.13815789473684215
431,1440.3073286052008,0.14473684210526316
432,1440.3073286052008,0.15131578947368418
433,1443.1048069345943,0.15131578947368418
434,1443.1048069345943,0.16447368421052633
435,1443.1048069345943,0.1578947368421053
436,1445.9022852639873,0.16447368421052633
437,1445.9022852639873,0.1842105263157895
438,1445.9022852639873,0.17763157894736847
439,1445.9022852639873,0.1907894736842105
440,1445.9022852639873,0.17105263157894735
441,1448.6997635933808,0.20394736842105265
442,1448.6997635933808,0.1907894736842105
443,1448.6997635933808,0.21052631578947367
444,1448.6997635933808,0.19736842105263153
445,1451.4972419227738,0.24342105263157898
446,1451.4972419227738,0.23026315789473684
447,1451.4972419227738,0.22368421052631582
448,1451.4972419227738,0.2171052631578947
449,1451.4972419227738,0.21052631578947367
450,1451.4972419227738,0.23684210526315785
451,1454.2947202521673,0.24342105263157898
452,1457.0921985815603,0.24342105263157898
453,1457.0921985815603,0.25
454,1459.8896769109533,0.24342105263157898
455,1459.8896769109533,0.25
456,1462.6871552403468,0.23684210526315785
457,1462.6871552403468,0.23026315789473684
458,1462.6871552403468,0.22368421052631582
459,1462.6871552403468,0.2171052631578947
