,wavenumbers,absorbance
0,452.797478329393,0.03289473684210531
1,452.797478329393,0.02631578947368418
2,455.5949566587865,0.03289473684210531
3,455.5949566587865,0.02631578947368418
4,458.3924349881795,0.02631578947368418
5,461.189913317573,0.02631578947368418
6,463.987391646966,0.02631578947368418
7,466.78486997635946,0.02631578947368418
8,469.5823483057525,0.02631578947368418
9,472.37982663514595,0.02631578947368418
10,475.17730496453896,0.03289473684210531
11,475.17730496453896,0.02631578947368418
12,477.97478329393243,0.03289473684210531
13,480.77226162332545,0.03289473684210531
14,483.56973995271846,0.03289473684210531
15,486.36721828211193,0.03289473684210531
16,489.16469661150495,0.03289473684210531
17,491.9621749408984,0.03289473684210531
18,494.75965327029144,0.02631578947368418
19,494.75965327029144,0.03289473684210531
20,497.5571315996849,0.02631578947368418
21,500.3546099290779,0.02631578947368418
22,503.1520882584714,0.02631578947368418
23,503.1520882584714,0.019736842105263164
24,505.9495665878644,0.019736842105263164
25,508.7470449172579,0.019736842105263164
26,511.5445232466509,0.019736842105263164
27,514.3420015760439,0.019736842105263164
28,517.1394799054374,0.019736842105263164
29,519.9369582348304,0.019736842105263164
30,522.7344365642239,0.019736842105263164
31,525.5319148936169,0.019736842105263164
32,528.3293932230104,0.02631578947368418
33,528.3293932230104,0.019736842105263164
34,531.1268715524034,0.02631578947368418
35,533.9243498817968,0.019736842105263164
36,533.9243498817968,0.02631578947368418
37,536.7218282111899,0.02631578947368418
38,539.5193065405833,0.02631578947368418
39,542.3167848699763,0.02631578947368418
40,545.1142631993694,0.02631578947368418
41,547.9117415287628,0.02631578947368418
42,550.7092198581558,0.02631578947368418
43,553.5066981875493,0.02631578947368418
44,556.3041765169423,0.02631578947368418
45,559.1016548463358,0.02631578947368418
46,561.8991331757288,0.02631578947368418
47,564.6966115051223,0.02631578947368418
48,567.4940898345153,0.02631578947368418
49,570.2915681639088,0.02631578947368418
50,573.0890464933018,0.02631578947368418
51,575.8865248226948,0.02631578947368418
52,578.6840031520883,0.02631578947368418
53,581.4814814814813,0.02631578947368418
54,584.2789598108748,0.02631578947368418
55,587.0764381402678,0.02631578947368418
56,589.8739164696613,0.02631578947368418
57,592.6713947990543,0.02631578947368418
58,595.4688731284477,0.02631578947368418
59,598.2663514578408,0.02631578947368418
60,601.0638297872342,0.02631578947368418
61,603.8613081166272,0.02631578947368418
62,606.6587864460207,0.02631578947368418
63,609.4562647754137,0.02631578947368418
64,612.2537431048067,0.02631578947368418
65,615.0512214342002,0.02631578947368418
66,617.8486997635932,0.02631578947368418
67,620.6461780929867,0.03289473684210531
68,620.6461780929867,0.02631578947368418
69,623.4436564223797,0.03289473684210531
70,626.2411347517732,0.03289473684210531
71,629.0386130811662,0.03289473684210531
72,631.8360914105597,0.03289473684210531
73,634.6335697399527,0.03289473684210531
74,634.6335697399527,0.02631578947368418
75,637.4310480693462,0.02631578947368418
76,640.2285263987392,0.02631578947368418
77,643.0260047281322,0.02631578947368418
78,645.8234830575257,0.02631578947368418
79,648.6209613869187,0.02631578947368418
80,651.4184397163122,0.02631578947368418
81,654.2159180457052,0.02631578947368418
82,657.0133963750986,0.02631578947368418
83,659.8108747044917,0.02631578947368418
84,662.6083530338851,0.02631578947368418
85,665.4058313632781,0.02631578947368418
86,668.2033096926716,0.02631578947368418
87,671.0007880220646,0.02631578947368418
88,671.0007880220646,0.019736842105263164
89,673.7982663514576,0.019736842105263164
90,676.5957446808511,0.019736842105263164
91,679.3932230102441,0.019736842105263164
92,682.1907013396376,0.019736842105263164
93,682.1907013396376,0.02631578947368418
94,684.9881796690306,0.02631578947368418
95,687.7856579984241,0.02631578947368418
96,690.5831363278171,0.02631578947368418
97,693.3806146572106,0.02631578947368418
98,693.3806146572106,0.03289473684210531
99,693.3806146572106,0.03947368421052633
100,696.1780929866036,0.03947368421052633
101,698.9755713159971,0.03947368421052633
102,698.9755713159971,0.046052631578947345
103,701.7730496453901,0.046052631578947345
104,701.7730496453901,0.03947368421052633
105,704.5705279747831,0.03947368421052633
106,707.3680063041766,0.03947368421052633
107,710.1654846335696,0.03947368421052633
108,712.962962962963,0.046052631578947345
109,712.962962962963,0.052631578947368474
110,712.962962962963,0.03947368421052633
111,715.7604412923561,0.052631578947368474
112,718.5579196217495,0.046052631578947345
113,718.5579196217495,0.052631578947368474
114,721.3553979511425,0.03947368421052633
115,721.3553979511425,0.046052631578947345
116,724.152876280536,0.03289473684210531
117,724.152876280536,0.03947368421052633
118,726.950354609929,0.03289473684210531
119,729.7478329393225,0.03289473684210531
120,729.7478329393225,0.02631578947368418
121,732.5453112687155,0.02631578947368418
122,735.3427895981085,0.02631578947368418
123,738.140267927502,0.03289473684210531
124,738.140267927502,0.02631578947368418
125,740.937746256895,0.03289473684210531
126,743.7352245862885,0.03947368421052633
127,743.7352245862885,0.03289473684210531
128,746.5327029156815,0.046052631578947345
129,746.5327029156815,0.03947368421052633
130,749.330181245075,0.052631578947368474
131,749.330181245075,0.046052631578947345
132,752.127659574468,0.046052631578947345
133,754.9251379038615,0.046052631578947345
134,754.9251379038615,0.03947368421052633
135,757.7226162332545,0.03947368421052633
136,760.520094562648,0.03947368421052633
137,763.317572892041,0.03289473684210531
138,763.317572892041,0.03947368421052633
139,766.115051221434,0.03289473684210531
140,766.115051221434,0.03947368421052633
141,768.9125295508275,0.03947368421052633
142,771.7100078802205,0.03947368421052633
143,774.507486209614,0.03289473684210531
144,774.507486209614,0.03947368421052633
145,777.304964539007,0.03289473684210531
146,777.304964539007,0.03947368421052633
147,780.1024428684004,0.03289473684210531
148,780.1024428684004,0.03947368421052633
149,782.8999211977934,0.03289473684210531
150,785.6973995271869,0.03289473684210531
151,785.6973995271869,0.03947368421052633
152,788.4948778565799,0.03947368421052633
153,791.2923561859734,0.03947368421052633
154,794.0898345153664,0.03947368421052633
155,794.0898345153664,0.03289473684210531
156,796.8873128447594,0.03289473684210531
157,796.8873128447594,0.03947368421052633
158,799.6847911741529,0.03947368421052633
159,799.6847911741529,0.046052631578947345
160,802.4822695035459,0.046052631578947345
161,805.2797478329394,0.046052631578947345
162,805.2797478329394,0.052631578947368474
163,808.0772261623324,0.052631578947368474
164,810.8747044917259,0.06578947368421051
165,810.8747044917259,0.05921052631578949
166,810.8747044917259,0.052631578947368474
167,810.8747044917259,0.07236842105263153
168,813.6721828211189,0.07894736842105265
169,813.6721828211189,0.08552631578947367
170,813.6721828211189,0.07236842105263153
171,816.4696611505124,0.09868421052631582
172,816.4696611505124,0.09210526315789469
173,819.2671394799054,0.09868421052631582
174,819.2671394799054,0.09210526315789469
175,819.2671394799054,0.08552631578947367
176,822.0646178092989,0.07894736842105265
177,822.0646178092989,0.08552631578947367
178,824.8620961386919,0.07236842105263153
179,824.8620961386919,0.07894736842105265
180,827.6595744680849,0.07236842105263153
181,830.4570527974784,0.05921052631578949
182,830.4570527974784,0.07236842105263153
183,830.4570527974784,0.06578947368421051
184,833.2545311268714,0.052631578947368474
185,833.2545311268714,0.05921052631578949
186,836.0520094562648,0.046052631578947345
187,836.0520094562648,0.052631578947368474
188,838.8494877856579,0.03947368421052633
189,838.8494877856579,0.046052631578947345
190,841.6469661150513,0.03947368421052633
191,844.4444444444443,0.046052631578947345
192,844.4444444444443,0.03947368421052633
193,847.2419227738378,0.046052631578947345
194,850.0394011032308,0.052631578947368474
195,850.0394011032308,0.05921052631578949
196,850.0394011032308,0.046052631578947345
197,852.8368794326243,0.05921052631578949
198,855.6343577620173,0.05921052631578949
199,858.4318360914103,0.05921052631578949
200,858.4318360914103,0.052631578947368474
201,861.2293144208038,0.052631578947368474
202,864.0267927501968,0.05921052631578949
203,864.0267927501968,0.052631578947368474
204,866.8242710795903,0.06578947368421051
205,866.8242710795903,0.05921052631578949
206,869.6217494089833,0.06578947368421051
207,872.4192277383768,0.06578947368421051
208,875.2167060677698,0.07236842105263153
209,875.2167060677698,0.06578947368421051
210,878.0141843971633,0.07236842105263153
211,878.0141843971633,0.07894736842105265
212,880.8116627265563,0.08552631578947367
213,880.8116627265563,0.07894736842105265
214,883.6091410559497,0.07894736842105265
215,883.6091410559497,0.08552631578947367
216,886.4066193853428,0.07236842105263153
217,886.4066193853428,0.07894736842105265
218,889.2040977147362,0.07236842105263153
219,892.0015760441293,0.07236842105263153
220,892.0015760441293,0.06578947368421051
221,894.7990543735223,0.06578947368421051
222,897.5965327029157,0.06578947368421051
223,900.3940110323088,0.06578947368421051
224,900.3940110323088,0.07236842105263153
225,903.1914893617022,0.07894736842105265
226,903.1914893617022,0.07236842105263153
227,905.9889676910952,0.07894736842105265
228,905.9889676910952,0.07236842105263153
229,908.7864460204887,0.07236842105263153
230,908.7864460204887,0.06578947368421051
231,911.5839243498817,0.06578947368421051
232,911.5839243498817,0.05921052631578949
233,914.3814026792752,0.05921052631578949
234,917.1788810086682,0.052631578947368474
235,917.1788810086682,0.05921052631578949
236,919.9763593380617,0.052631578947368474
237,922.7738376674547,0.052631578947368474
238,922.7738376674547,0.046052631578947345
239,925.5713159968477,0.046052631578947345
240,928.3687943262412,0.046052631578947345
241,931.1662726556342,0.046052631578947345
242,931.1662726556342,0.03947368421052633
243,933.9637509850277,0.03947368421052633
244,936.7612293144207,0.03947368421052633
245,936.7612293144207,0.046052631578947345
246,939.5587076438142,0.046052631578947345
247,942.3561859732072,0.046052631578947345
248,942.3561859732072,0.052631578947368474
249,945.1536643026006,0.05921052631578949
250,945.1536643026006,0.052631578947368474
251,947.9511426319937,0.05921052631578949
252,950.7486209613871,0.06578947368421051
253,950.7486209613871,0.05921052631578949
254,953.5460992907801,0.06578947368421051
255,953.5460992907801,0.07236842105263153
256,956.3435776201732,0.07894736842105265
257,956.3435776201732,0.07236842105263153
258,959.1410559495666,0.08552631578947367
259,959.1410559495666,0.07894736842105265
260,961.9385342789597,0.08552631578947367
261,961.9385342789597,0.09210526315789469
262,961.9385342789597,0.09868421052631582
263,964.7360126083531,0.09868421052631582
264,964.7360126083531,0.10526315789473684
265,967.5334909377461,0.11184210526315785
266,967.5334909377461,0.10526315789473684
267,970.3309692671396,0.11842105263157898
268,970.3309692671396,0.11184210526315785
269,973.1284475965326,0.125
270,973.1284475965326,0.11842105263157898
271,975.9259259259261,0.125
272,978.7234042553191,0.11842105263157898
273,978.7234042553191,0.125
274,981.5208825847126,0.11842105263157898
275,984.3183609141056,0.11184210526315785
276,984.3183609141056,0.11842105263157898
277,987.1158392434986,0.10526315789473684
278,987.1158392434986,0.11184210526315785
279,989.9133175728921,0.10526315789473684
280,992.7107959022851,0.10526315789473684
281,992.7107959022851,0.09868421052631582
282,995.5082742316786,0.09868421052631582
283,998.3057525610716,0.09210526315789469
284,998.3057525610716,0.09868421052631582
285,1001.103230890465,0.09210526315789469
286,1003.9007092198581,0.09210526315789469
287,1006.6981875492515,0.09210526315789469
288,1009.4956658786446,0.09210526315789469
289,1012.293144208038,0.09210526315789469
290,1015.090622537431,0.09210526315789469
291,1017.8881008668241,0.09868421052631582
292,1017.8881008668241,0.09210526315789469
293,1020.6855791962175,0.09868421052631582
294,1020.6855791962175,0.10526315789473684
295,1023.4830575256105,0.10526315789473684
296,1023.4830575256105,0.11184210526315785
297,1026.280535855004,0.11184210526315785
298,1029.078014184397,0.11184210526315785
299,1029.078014184397,0.11842105263157898
300,1029.078014184397,0.13157894736842102
301,1029.078014184397,0.125
302,1031.8754925137905,0.13815789473684215
303,1031.8754925137905,0.13157894736842102
304,1034.6729708431835,0.14473684210526316
305,1034.6729708431835,0.13815789473684215
306,1037.470449172577,0.125
307,1037.470449172577,0.13157894736842102
308,1037.470449172577,0.13815789473684215
309,1040.26792750197,0.11842105263157898
310,1040.26792750197,0.125
311,1040.26792750197,0.11184210526315785
312,1043.0654058313635,0.10526315789473684
313,1043.0654058313635,0.11184210526315785
314,1045.8628841607565,0.10526315789473684
315,1048.6603624901495,0.10526315789473684
316,1051.457840819543,0.10526315789473684
317,1054.255319148936,0.11842105263157898
318,1054.255319148936,0.10526315789473684
319,1054.255319148936,0.125
320,1054.255319148936,0.11184210526315785
321,1057.0527974783295,0.11842105263157898
322,1057.0527974783295,0.125
323,1059.8502758077225,0.11842105263157898
324,1059.8502758077225,0.11184210526315785
325,1062.647754137116,0.10526315789473684
326,1062.647754137116,0.11184210526315785
327,1065.445232466509,0.10526315789473684
328,1065.445232466509,0.09868421052631582
329,1068.2427107959024,0.09868421052631582
330,1068.2427107959024,0.10526315789473684
331,1071.0401891252955,0.10526315789473684
332,1073.837667454689,0.10526315789473684
333,1076.635145784082,0.10526315789473684
334,1079.432624113475,0.10526315789473684
335,1082.2301024428684,0.10526315789473684
336,1085.0275807722614,0.10526315789473684
337,1085.0275807722614,0.11184210526315785
338,1087.825059101655,0.11842105263157898
339,1087.825059101655,0.11184210526315785
340,1090.622537431048,0.14473684210526316
341,1090.622537431048,0.13815789473684215
342,1090.622537431048,0.125
343,1090.622537431048,0.11842105263157898
344,1090.622537431048,0.13157894736842102
345,1093.4200157604414,0.1578947368421053
346,1093.4200157604414,0.15131578947368418
347,1093.4200157604414,0.14473684210526316
348,1096.2174940898344,0.17763157894736847
349,1096.2174940898344,0.19736842105263153
350,1096.2174940898344,0.1842105263157895
351,1096.2174940898344,0.1578947368421053
352,1096.2174940898344,0.1907894736842105
353,1096.2174940898344,0.20394736842105265
354,1096.2174940898344,0.17105263157894735
355,1096.2174940898344,0.16447368421052633
356,1099.014972419228,0.20394736842105265
357,1099.014972419228,0.2171052631578947
358,1099.014972419228,0.23026315789473684
359,1099.014972419228,0.22368421052631582
360,1099.014972419228,0.21052631578947367
361,1101.812450748621,0.23026315789473684
362,1101.812450748621,0.24342105263157898
363,1101.812450748621,0.25
364,1101.812450748621,0.23684210526315785
365,1104.6099290780144,0.25
366,1104.6099290780144,0.256578947368421
367,1107.4074074074074,0.25
368,1107.4074074074074,0.23684210526315785
369,1107.4074074074074,0.24342105263157898
370,1110.2048857368004,0.22368421052631582
371,1110.2048857368004,0.2171052631578947
372,1110.2048857368004,0.21052631578947367
373,1110.2048857368004,0.23684210526315785
374,1110.2048857368004,0.23026315789473684
375,1113.0023640661939,0.21052631578947367
376,1115.799842395587,0.2171052631578947
377,1115.799842395587,0.21052631578947367
378,1115.799842395587,0.22368421052631582
379,1115.799842395587,0.23684210526315785
380,1115.799842395587,0.23026315789473684
381,1115.799842395587,0.24342105263157898
382,1118.5973207249804,0.26315789473684215
383,1118.5973207249804,0.25
384,1118.5973207249804,0.256578947368421
385,1118.5973207249804,0.24342105263157898
386,1121.3947990543734,0.26973684210526316
387,1121.3947990543734,0.2763157894736842
388,1121.3947990543734,0.2894736842105263
389,1121.3947990543734,0.2828947368421053
390,1121.3947990543734,0.26315789473684215
391,1124.1922773837669,0.2894736842105263
392,1124.1922773837669,0.2828947368421053
393,1126.9897557131599,0.2828947368421053
394,1126.9897557131599,0.2763157894736842
395,1129.7872340425533,0.2763157894736842
396,1129.7872340425533,0.26973684210526316
397,1129.7872340425533,0.26315789473684215
398,1132.5847123719464,0.26315789473684215
399,1132.5847123719464,0.256578947368421
400,1135.3821907013398,0.26315789473684215
401,1135.3821907013398,0.256578947368421
402,1138.1796690307328,0.26315789473684215
403,1138.1796690307328,0.26973684210526316
404,1138.1796690307328,0.2763157894736842
405,1140.9771473601263,0.2894736842105263
406,1140.9771473601263,0.2828947368421053
407,1140.9771473601263,0.2763157894736842
408,1143.7746256895193,0.2894736842105263
409,1146.5721040189123,0.2894736842105263
410,1146.5721040189123,0.26973684210526316
411,1146.5721040189123,0.2763157894736842
412,1146.5721040189123,0.2828947368421053
413,1149.3695823483058,0.26973684210526316
414,1149.3695823483058,0.26315789473684215
415,1152.1670606776988,0.26315789473684215
416,1152.1670606776988,0.256578947368421
417,1152.1670606776988,0.25
418,1154.9645390070923,0.25
419,1154.9645390070923,0.24342105263157898
420,1157.7620173364853,0.24342105263157898
421,1160.5594956658788,0.24342105263157898
422,1160.5594956658788,0.25
423,1163.3569739952718,0.25
424,1163.3569739952718,0.256578947368421
425,1166.1544523246653,0.256578947368421
426,1166.1544523246653,0.2763157894736842
427,1166.1544523246653,0.26973684210526316
428,1166.1544523246653,0.26315789473684215
429,1168.9519306540583,0.2828947368421053
430,1168.9519306540583,0.2763157894736842
431,1171.7494089834518,0.2828947368421053
432,1171.7494089834518,0.2763157894736842
433,1174.5468873128448,0.2763157894736842
434,1174.5468873128448,0.26973684210526316
435,1177.3443656422378,0.26973684210526316
436,1180.1418439716313,0.26973684210526316
437,1180.1418439716313,0.2763157894736842
438,1182.9393223010243,0.2763157894736842
439,1185.7368006304177,0.2763157894736842
440,1185.7368006304177,0.26973684210526316
441,1188.5342789598108,0.26315789473684215
442,1188.5342789598108,0.26973684210526316
443,1191.3317572892042,0.25
444,1191.3317572892042,0.24342105263157898
445,1191.3317572892042,0.26315789473684215
446,1191.3317572892042,0.256578947368421
447,1191.3317572892042,0.23684210526315785
448,1194.1292356185972,0.22368421052631582
449,1194.1292356185972,0.23684210526315785
450,1194.1292356185972,0.23026315789473684
451,1196.9267139479907,0.20394736842105265
452,1196.9267139479907,0.22368421052631582
453,1196.9267139479907,0.21052631578947367
454,1196.9267139479907,0.2171052631578947
455,1196.9267139479907,0.1907894736842105
456,1196.9267139479907,0.19736842105263153
457,1199.7241922773837,0.1842105263157895
458,1199.7241922773837,0.1907894736842105
459,1202.5216706067772,0.1842105263157895
460,1205.3191489361702,0.1842105263157895
461,1208.1166272655632,0.1907894736842105
462,1208.1166272655632,0.1842105263157895
463,1210.9141055949567,0.20394736842105265
464,1210.9141055949567,0.19736842105263153
465,1210.9141055949567,0.1907894736842105
466,1213.7115839243497,0.20394736842105265
467,1213.7115839243497,0.21052631578947367
468,1216.5090622537432,0.23026315789473684
469,1216.5090622537432,0.2171052631578947
