,wavenumbers,absorbance
0,452.797478329393,0.02631578947368418
1,452.797478329393,0.03289473684210531
2,455.5949566587865,0.03289473684210531
3,455.5949566587865,0.02631578947368418
4,458.3924349881795,0.02631578947368418
5,461.189913317573,0.02631578947368418
6,463.987391646966,0.02631578947368418
7,463.987391646966,0.019736842105263164
8,466.78486997635946,0.019736842105263164
9,466.78486997635946,0.02631578947368418
10,469.5823483057525,0.02631578947368418
11,472.37982663514595,0.02631578947368418
12,475.17730496453896,0.02631578947368418
13,477.97478329393243,0.02631578947368418
14,480.77226162332545,0.02631578947368418
15,483.56973995271846,0.02631578947368418
16,486.36721828211193,0.02631578947368418
17,489.16469661150495,0.02631578947368418
18,491.9621749408984,0.02631578947368418
19,494.75965327029144,0.02631578947368418
20,497.5571315996849,0.02631578947368418
21,500.3546099290779,0.02631578947368418
22,500.3546099290779,0.019736842105263164
23,503.1520882584714,0.019736842105263164
24,505.9495665878644,0.019736842105263164
25,508.7470449172579,0.013157894736842146
26,508.7470449172579,0.019736842105263164
27,511.5445232466509,0.019736842105263164
28,514.3420015760439,0.019736842105263164
29,517.1394799054374,0.019736842105263164
30,519.9369582348304,0.019736842105263164
31,522.7344365642239,0.019736842105263164
32,525.5319148936169,0.019736842105263164
33,528.3293932230104,0.019736842105263164
34,531.1268715524034,0.019736842105263164
35,533.9243498817968,0.019736842105263164
36,536.7218282111899,0.019736842105263164
37,539.5193065405833,0.019736842105263164
38,542.3167848699763,0.019736842105263164
39,545.1142631993694,0.019736842105263164
40,547.9117415287628,0.019736842105263164
41,550.7092198581558,0.02631578947368418
42,550.7092198581558,0.019736842105263164
43,553.5066981875493,0.02631578947368418
44,556.3041765169423,0.02631578947368418
45,559.1016548463358,0.02631578947368418
46,561.8991331757288,0.02631578947368418
47,561.8991331757288,0.03289473684210531
48,564.6966115051223,0.03289473684210531
49,567.4940898345153,0.03289473684210531
50,567.4940898345153,0.03947368421052633
51,570.2915681639088,0.03947368421052633
52,573.0890464933018,0.046052631578947345
53,573.0890464933018,0.03947368421052633
54,575.8865248226948,0.052631578947368474
55,575.8865248226948,0.046052631578947345
56,578.6840031520883,0.052631578947368474
57,581.4814814814813,0.052631578947368474
58,584.2789598108748,0.05921052631578949
59,584.2789598108748,0.052631578947368474
60,587.0764381402678,0.05921052631578949
61,589.8739164696613,0.05921052631578949
62,592.6713947990543,0.052631578947368474
63,592.6713947990543,0.05921052631578949
64,595.4688731284477,0.052631578947368474
65,598.2663514578408,0.052631578947368474
66,601.0638297872342,0.052631578947368474
67,601.0638297872342,0.046052631578947345
68,603.8613081166272,0.046052631578947345
69,606.6587864460207,0.046052631578947345
70,609.4562647754137,0.046052631578947345
71,612.2537431048067,0.046052631578947345
72,612.2537431048067,0.03947368421052633
73,615.0512214342002,0.03947368421052633
74,617.8486997635932,0.03947368421052633
75,620.6461780929867,0.03947368421052633
76,620.6461780929867,0.03289473684210531
77,623.4436564223797,0.03289473684210531
78,626.2411347517732,0.03289473684210531
79,629.0386130811662,0.03289473684210531
80,631.8360914105597,0.03289473684210531
81,634.6335697399527,0.03289473684210531
82,637.4310480693462,0.03289473684210531
83,640.2285263987392,0.03289473684210531
84,643.0260047281322,0.03289473684210531
85,645.8234830575257,0.03289473684210531
86,648.6209613869187,0.03289473684210531
87,651.4184397163122,0.03289473684210531
88,651.4184397163122,0.03947368421052633
89,654.2159180457052,0.03947368421052633
90,657.0133963750986,0.03947368421052633
91,659.8108747044917,0.03947368421052633
92,662.6083530338851,0.03947368421052633
93,662.6083530338851,0.046052631578947345
94,665.4058313632781,0.046052631578947345
95,668.2033096926716,0.046052631578947345
96,668.2033096926716,0.052631578947368474
97,671.0007880220646,0.052631578947368474
98,673.7982663514576,0.052631578947368474
99,676.5957446808511,0.05921052631578949
100,676.5957446808511,0.052631578947368474
101,679.3932230102441,0.05921052631578949
102,679.3932230102441,0.06578947368421051
103,682.1907013396376,0.06578947368421051
104,682.1907013396376,0.07236842105263153
105,684.9881796690306,0.07236842105263153
106,687.7856579984241,0.07894736842105265
107,687.7856579984241,0.07236842105263153
108,690.5831363278171,0.07894736842105265
109,693.3806146572106,0.08552631578947367
110,693.3806146572106,0.07894736842105265
111,696.1780929866036,0.08552631578947367
112,698.9755713159971,0.08552631578947367
113,698.9755713159971,0.09210526315789469
114,701.7730496453901,0.09210526315789469
115,701.7730496453901,0.09868421052631582
116,704.5705279747831,0.09868421052631582
117,707.3680063041766,0.09868421052631582
118,707.3680063041766,0.10526315789473684
119,710.1654846335696,0.10526315789473684
120,710.1654846335696,0.11184210526315785
121,712.962962962963,0.125
122,712.962962962963,0.11184210526315785
123,712.962962962963,0.11842105263157898
124,715.7604412923561,0.13157894736842102
125,715.7604412923561,0.125
126,718.5579196217495,0.13815789473684215
127,718.5579196217495,0.13157894736842102
128,721.3553979511425,0.13157894736842102
129,721.3553979511425,0.13815789473684215
130,724.152876280536,0.13157894736842102
131,724.152876280536,0.125
132,726.950354609929,0.11842105263157898
133,726.950354609929,0.125
134,729.7478329393225,0.11842105263157898
135,729.7478329393225,0.11184210526315785
136,732.5453112687155,0.11184210526315785
137,732.5453112687155,0.10526315789473684
138,735.3427895981085,0.09868421052631582
139,735.3427895981085,0.10526315789473684
140,738.140267927502,0.09868421052631582
141,738.140267927502,0.09210526315789469
142,740.937746256895,0.09210526315789469
143,740.937746256895,0.08552631578947367
144,743.7352245862885,0.08552631578947367
145,746.5327029156815,0.08552631578947367
146,749.330181245075,0.08552631578947367
147,749.330181245075,0.07894736842105265
148,752.127659574468,0.08552631578947367
149,754.9251379038615,0.08552631578947367
150,757.7226162332545,0.08552631578947367
151,760.520094562648,0.08552631578947367
152,760.520094562648,0.09210526315789469
153,763.317572892041,0.09210526315789469
154,766.115051221434,0.09210526315789469
155,768.9125295508275,0.09210526315789469
156,771.7100078802205,0.09210526315789469
157,774.507486209614,0.09210526315789469
158,777.304964539007,0.08552631578947367
159,777.304964539007,0.09210526315789469
160,780.1024428684004,0.08552631578947367
161,780.1024428684004,0.07894736842105265
162,782.8999211977934,0.07894736842105265
163,785.6973995271869,0.07894736842105265
164,788.4948778565799,0.07894736842105265
165,788.4948778565799,0.07236842105263153
166,791.2923561859734,0.06578947368421051
167,791.2923561859734,0.07236842105263153
168,794.0898345153664,0.06578947368421051
169,796.8873128447594,0.06578947368421051
170,799.6847911741529,0.07236842105263153
171,799.6847911741529,0.06578947368421051
172,802.4822695035459,0.07236842105263153
173,802.4822695035459,0.07894736842105265
174,805.2797478329394,0.09210526315789469
175,805.2797478329394,0.08552631578947367
176,805.2797478329394,0.07894736842105265
177,808.0772261623324,0.09210526315789469
178,808.0772261623324,0.09868421052631582
179,810.8747044917259,0.09868421052631582
180,810.8747044917259,0.10526315789473684
181,813.6721828211189,0.09868421052631582
182,816.4696611505124,0.09868421052631582
183,816.4696611505124,0.09210526315789469
184,819.2671394799054,0.07894736842105265
185,819.2671394799054,0.07236842105263153
186,819.2671394799054,0.09210526315789469
187,819.2671394799054,0.08552631578947367
188,822.0646178092989,0.07236842105263153
189,822.0646178092989,0.06578947368421051
190,824.8620961386919,0.052631578947368474
191,824.8620961386919,0.05921052631578949
192,824.8620961386919,0.06578947368421051
193,827.6595744680849,0.046052631578947345
194,827.6595744680849,0.052631578947368474
195,830.4570527974784,0.046052631578947345
196,833.2545311268714,0.046052631578947345
197,833.2545311268714,0.03947368421052633
198,836.0520094562648,0.03947368421052633
199,838.8494877856579,0.03947368421052633
200,841.6469661150513,0.03289473684210531
201,841.6469661150513,0.03947368421052633
202,844.4444444444443,0.03289473684210531
203,847.2419227738378,0.03289473684210531
204,850.0394011032308,0.03289473684210531
205,852.8368794326243,0.03289473684210531
206,855.6343577620173,0.02631578947368418
207,855.6343577620173,0.03289473684210531
208,858.4318360914103,0.02631578947368418
209,861.2293144208038,0.02631578947368418
210,864.0267927501968,0.02631578947368418
211,866.8242710795903,0.019736842105263164
212,866.8242710795903,0.02631578947368418
213,869.6217494089833,0.019736842105263164
214,872.4192277383768,0.019736842105263164
215,875.2167060677698,0.019736842105263164
216,878.0141843971633,0.019736842105263164
217,880.8116627265563,0.019736842105263164
218,883.6091410559497,0.019736842105263164
219,886.4066193853428,0.019736842105263164
220,886.4066193853428,0.013157894736842146
221,889.2040977147362,0.013157894736842146
222,889.2040977147362,0.019736842105263164
223,892.0015760441293,0.019736842105263164
224,894.7990543735223,0.019736842105263164
225,897.5965327029157,0.019736842105263164
226,900.3940110323088,0.019736842105263164
227,900.3940110323088,0.02631578947368418
228,903.1914893617022,0.02631578947368418
229,905.9889676910952,0.02631578947368418
230,908.7864460204887,0.02631578947368418
231,911.5839243498817,0.02631578947368418
232,914.3814026792752,0.02631578947368418
233,917.1788810086682,0.02631578947368418
234,919.9763593380617,0.02631578947368418
235,922.7738376674547,0.02631578947368418
236,925.5713159968477,0.02631578947368418
237,928.3687943262412,0.02631578947368418
238,931.1662726556342,0.02631578947368418
239,933.9637509850277,0.03289473684210531
240,933.9637509850277,0.02631578947368418
241,936.7612293144207,0.03289473684210531
242,939.5587076438142,0.03289473684210531
243,939.5587076438142,0.03947368421052633
244,942.3561859732072,0.03947368421052633
245,945.1536643026006,0.03947368421052633
246,947.9511426319937,0.03947368421052633
247,950.7486209613871,0.03947368421052633
248,950.7486209613871,0.03289473684210531
249,953.5460992907801,0.03947368421052633
250,953.5460992907801,0.03289473684210531
251,956.3435776201732,0.03947368421052633
252,959.1410559495666,0.046052631578947345
253,959.1410559495666,0.03947368421052633
254,961.9385342789597,0.046052631578947345
255,964.7360126083531,0.046052631578947345
256,967.5334909377461,0.046052631578947345
257,970.3309692671396,0.046052631578947345
258,973.1284475965326,0.052631578947368474
259,973.1284475965326,0.046052631578947345
260,975.9259259259261,0.052631578947368474
261,978.7234042553191,0.05921052631578949
262,978.7234042553191,0.06578947368421051
263,978.7234042553191,0.052631578947368474
264,981.5208825847126,0.06578947368421051
265,984.3183609141056,0.06578947368421051
266,987.1158392434986,0.06578947368421051
267,987.1158392434986,0.05921052631578949
268,989.9133175728921,0.05921052631578949
269,992.7107959022851,0.05921052631578949
270,995.5082742316786,0.06578947368421051
271,995.5082742316786,0.05921052631578949
272,998.3057525610716,0.06578947368421051
273,998.3057525610716,0.07236842105263153
274,1001.103230890465,0.07894736842105265
275,1001.103230890465,0.07236842105263153
276,1003.9007092198581,0.07894736842105265
277,1003.9007092198581,0.09210526315789469
278,1003.9007092198581,0.08552631578947367
279,1006.6981875492515,0.09868421052631582
280,1009.4956658786446,0.09868421052631582
281,1009.4956658786446,0.09210526315789469
282,1009.4956658786446,0.08552631578947367
283,1012.293144208038,0.07894736842105265
284,1012.293144208038,0.08552631578947367
285,1012.293144208038,0.07236842105263153
286,1015.090622537431,0.07236842105263153
287,1017.8881008668241,0.06578947368421051
288,1017.8881008668241,0.07236842105263153
289,1020.6855791962175,0.06578947368421051
290,1020.6855791962175,0.05921052631578949
291,1023.4830575256105,0.05921052631578949
292,1026.280535855004,0.05921052631578949
293,1029.078014184397,0.05921052631578949
294,1031.8754925137905,0.05921052631578949
295,1034.6729708431835,0.05921052631578949
296,1037.470449172577,0.05921052631578949
297,1040.26792750197,0.05921052631578949
298,1043.0654058313635,0.05921052631578949
299,1043.0654058313635,0.06578947368421051
300,1045.8628841607565,0.06578947368421051
301,1048.6603624901495,0.06578947368421051
302,1051.457840819543,0.06578947368421051
303,1054.255319148936,0.06578947368421051
304,1054.255319148936,0.07236842105263153
305,1057.0527974783295,0.07236842105263153
306,1057.0527974783295,0.06578947368421051
307,1059.8502758077225,0.06578947368421051
308,1062.647754137116,0.06578947368421051
309,1065.445232466509,0.06578947368421051
310,1068.2427107959024,0.06578947368421051
311,1071.0401891252955,0.06578947368421051
312,1073.837667454689,0.06578947368421051
313,1076.635145784082,0.06578947368421051
314,1079.432624113475,0.06578947368421051
315,1082.2301024428684,0.06578947368421051
316,1082.2301024428684,0.07236842105263153
317,1085.0275807722614,0.07236842105263153
318,1087.825059101655,0.07236842105263153
319,1090.622537431048,0.07236842105263153
320,1090.622537431048,0.07894736842105265
321,1093.4200157604414,0.07894736842105265
322,1093.4200157604414,0.08552631578947367
323,1096.2174940898344,0.09210526315789469
324,1096.2174940898344,0.08552631578947367
325,1099.014972419228,0.09210526315789469
326,1099.014972419228,0.09868421052631582
327,1101.812450748621,0.09868421052631582
328,1104.6099290780144,0.10526315789473684
329,1104.6099290780144,0.09868421052631582
330,1104.6099290780144,0.11184210526315785
331,1107.4074074074074,0.11842105263157898
332,1107.4074074074074,0.11184210526315785
333,1110.2048857368004,0.125
334,1110.2048857368004,0.11842105263157898
335,1113.0023640661939,0.125
336,1113.0023640661939,0.13157894736842102
337,1115.799842395587,0.14473684210526316
338,1115.799842395587,0.13815789473684215
339,1115.799842395587,0.13157894736842102
340,1118.5973207249804,0.14473684210526316
341,1121.3947990543734,0.14473684210526316
342,1121.3947990543734,0.15131578947368418
343,1124.1922773837669,0.15131578947368418
344,1126.9897557131599,0.15131578947368418
345,1129.7872340425533,0.15131578947368418
346,1132.5847123719464,0.15131578947368418
347,1135.3821907013398,0.15131578947368418
348,1138.1796690307328,0.15131578947368418
349,1140.9771473601263,0.15131578947368418
350,1140.9771473601263,0.14473684210526316
351,1143.7746256895193,0.14473684210526316
352,1146.5721040189123,0.14473684210526316
353,1146.5721040189123,0.13815789473684215
354,1149.3695823483058,0.13815789473684215
355,1152.1670606776988,0.13815789473684215
356,1154.9645390070923,0.13815789473684215
357,1157.7620173364853,0.13815789473684215
358,1160.5594956658788,0.13157894736842102
359,1160.5594956658788,0.13815789473684215
360,1160.5594956658788,0.125
361,1163.3569739952718,0.125
362,1163.3569739952718,0.11842105263157898
363,1163.3569739952718,0.11184210526315785
364,1166.1544523246653,0.09868421052631582
365,1166.1544523246653,0.11184210526315785
366,1166.1544523246653,0.10526315789473684
367,1168.9519306540583,0.09868421052631582
368,1171.7494089834518,0.09210526315789469
369,1171.7494089834518,0.09868421052631582
370,1174.5468873128448,0.09210526315789469
371,1177.3443656422378,0.09210526315789469
372,1180.1418439716313,0.08552631578947367
373,1180.1418439716313,0.09210526315789469
374,1182.9393223010243,0.08552631578947367
375,1185.7368006304177,0.08552631578947367
376,1188.5342789598108,0.08552631578947367
377,1191.3317572892042,0.08552631578947367
378,1194.1292356185972,0.08552631578947367
379,1194.1292356185972,0.09210526315789469
380,1196.9267139479907,0.09210526315789469
381,1199.7241922773837,0.09210526315789469
382,1199.7241922773837,0.09868421052631582
383,1202.5216706067772,0.10526315789473684
384,1202.5216706067772,0.09868421052631582
385,1205.3191489361702,0.10526315789473684
386,1208.1166272655632,0.11184210526315785
387,1208.1166272655632,0.10526315789473684
388,1210.9141055949567,0.11184210526315785
389,1213.7115839243497,0.11184210526315785
390,1216.5090622537432,0.11842105263157898
391,1216.5090622537432,0.11184210526315785
392,1219.3065405831362,0.11842105263157898
393,1222.1040189125297,0.11842105263157898
394,1222.1040189125297,0.125
395,1224.9014972419227,0.125
396,1224.9014972419227,0.13157894736842102
397,1227.6989755713162,0.13815789473684215
398,1227.6989755713162,0.13157894736842102
399,1230.4964539007092,0.13815789473684215
400,1233.2939322301027,0.15131578947368418
401,1233.2939322301027,0.14473684210526316
402,1233.2939322301027,0.13815789473684215
403,1236.0914105594957,0.1578947368421053
404,1236.0914105594957,0.15131578947368418
405,1238.8888888888887,0.17105263157894735
406,1238.8888888888887,0.1578947368421053
407,1238.8888888888887,0.16447368421052633
408,1241.6863672182822,0.1842105263157895
409,1241.6863672182822,0.17763157894736847
410,1241.6863672182822,0.17105263157894735
411,1244.4838455476752,0.1907894736842105
412,1244.4838455476752,0.1842105263157895
413,1247.2813238770686,0.1907894736842105
414,1247.2813238770686,0.19736842105263153
415,1247.2813238770686,0.20394736842105265
416,1250.0788022064617,0.20394736842105265
417,1252.8762805358551,0.2171052631578947
418,1252.8762805358551,0.21052631578947367
419,1252.8762805358551,0.20394736842105265
420,1255.6737588652481,0.2171052631578947
421,1255.6737588652481,0.22368421052631582
422,1258.4712371946416,0.23026315789473684
423,1258.4712371946416,0.23684210526315785
424,1258.4712371946416,0.22368421052631582
425,1261.2687155240346,0.24342105263157898
426,1261.2687155240346,0.23684210526315785
427,1264.066193853428,0.25
428,1264.066193853428,0.24342105263157898
429,1266.8636721828211,0.256578947368421
430,1266.8636721828211,0.25
431,1269.6611505122141,0.256578947368421
432,1269.6611505122141,0.26315789473684215
433,1272.4586288416076,0.26315789473684215
434,1275.2561071710006,0.26973684210526316
435,1275.2561071710006,0.26315789473684215
436,1278.053585500394,0.26973684210526316
437,1278.053585500394,0.2763157894736842
438,1280.851063829787,0.2763157894736842
439,1283.6485421591806,0.2763157894736842
440,1283.6485421591806,0.2828947368421053
441,1286.4460204885736,0.2828947368421053
442,1289.243498817967,0.2894736842105263
443,1289.243498817967,0.2828947368421053
444,1292.04097714736,0.29605263157894735
445,1292.04097714736,0.2894736842105263
446,1294.8384554767536,0.29605263157894735
447,1294.8384554767536,0.3026315789473685
448,1297.6359338061466,0.3026315789473685
449,1300.4334121355396,0.3026315789473685
450,1303.230890464933,0.3026315789473685
451,1303.230890464933,0.29605263157894735
452,1306.028368794326,0.29605263157894735
453,1308.8258471237195,0.2894736842105263
454,1308.8258471237195,0.2828947368421053
455,1308.8258471237195,0.29605263157894735
456,1311.6233254531126,0.2763157894736842
457,1311.6233254531126,0.2828947368421053
458,1314.420803782506,0.2763157894736842
459,1314.420803782506,0.26973684210526316
460,1317.218282111899,0.26315789473684215
461,1317.218282111899,0.256578947368421
462,1317.218282111899,0.26973684210526316
463,1320.0157604412925,0.256578947368421
464,1320.0157604412925,0.24342105263157898
465,1320.0157604412925,0.23684210526315785
466,1320.0157604412925,0.25
