,wavenumbers,absorbance
0,452.797478329393,0.03289473684210531
1,452.797478329393,0.03947368421052633
2,455.5949566587865,0.03289473684210531
3,458.3924349881795,0.03289473684210531
4,461.189913317573,0.03289473684210531
5,463.987391646966,0.03289473684210531
6,463.987391646966,0.02631578947368418
7,466.78486997635946,0.019736842105263164
8,466.78486997635946,0.02631578947368418
9,469.5823483057525,0.019736842105263164
10,472.37982663514595,0.02631578947368418
11,472.37982663514595,0.019736842105263164
12,475.17730496453896,0.02631578947368418
13,477.97478329393243,0.02631578947368418
14,480.77226162332545,0.02631578947368418
15,483.56973995271846,0.02631578947368418
16,486.36721828211193,0.02631578947368418
17,489.16469661150495,0.02631578947368418
18,491.9621749408984,0.02631578947368418
19,494.75965327029144,0.02631578947368418
20,497.5571315996849,0.02631578947368418
21,500.3546099290779,0.02631578947368418
22,503.1520882584714,0.02631578947368418
23,505.9495665878644,0.02631578947368418
24,508.7470449172579,0.02631578947368418
25,511.5445232466509,0.02631578947368418
26,514.3420015760439,0.02631578947368418
27,517.1394799054374,0.02631578947368418
28,519.9369582348304,0.02631578947368418
29,522.7344365642239,0.02631578947368418
30,525.5319148936169,0.02631578947368418
31,528.3293932230104,0.02631578947368418
32,531.1268715524034,0.02631578947368418
33,533.9243498817968,0.02631578947368418
34,536.7218282111899,0.02631578947368418
35,536.7218282111899,0.019736842105263164
36,539.5193065405833,0.02631578947368418
37,539.5193065405833,0.019736842105263164
38,542.3167848699763,0.02631578947368418
39,545.1142631993694,0.019736842105263164
40,545.1142631993694,0.02631578947368418
41,547.9117415287628,0.019736842105263164
42,550.7092198581558,0.019736842105263164
43,553.5066981875493,0.019736842105263164
44,556.3041765169423,0.019736842105263164
45,559.1016548463358,0.019736842105263164
46,559.1016548463358,0.02631578947368418
47,561.8991331757288,0.02631578947368418
48,564.6966115051223,0.02631578947368418
49,567.4940898345153,0.02631578947368418
50,567.4940898345153,0.019736842105263164
51,570.2915681639088,0.019736842105263164
52,573.0890464933018,0.019736842105263164
53,575.8865248226948,0.019736842105263164
54,578.6840031520883,0.019736842105263164
55,581.4814814814813,0.019736842105263164
56,584.2789598108748,0.019736842105263164
57,587.0764381402678,0.019736842105263164
58,589.8739164696613,0.019736842105263164
59,592.6713947990543,0.019736842105263164
60,595.4688731284477,0.019736842105263164
61,598.2663514578408,0.019736842105263164
62,601.0638297872342,0.019736842105263164
63,603.8613081166272,0.019736842105263164
64,606.6587864460207,0.019736842105263164
65,609.4562647754137,0.019736842105263164
66,612.2537431048067,0.019736842105263164
67,615.0512214342002,0.019736842105263164
68,617.8486997635932,0.019736842105263164
69,620.6461780929867,0.019736842105263164
70,623.4436564223797,0.019736842105263164
71,626.2411347517732,0.019736842105263164
72,629.0386130811662,0.019736842105263164
73,631.8360914105597,0.019736842105263164
74,634.6335697399527,0.019736842105263164
75,637.4310480693462,0.019736842105263164
76,640.2285263987392,0.019736842105263164
77,643.0260047281322,0.02631578947368418
78,643.0260047281322,0.019736842105263164
79,645.8234830575257,0.02631578947368418
80,648.6209613869187,0.019736842105263164
81,648.6209613869187,0.02631578947368418
82,651.4184397163122,0.019736842105263164
83,651.4184397163122,0.02631578947368418
84,654.2159180457052,0.02631578947368418
85,657.0133963750986,0.02631578947368418
86,659.8108747044917,0.02631578947368418
87,662.6083530338851,0.03289473684210531
88,662.6083530338851,0.02631578947368418
89,665.4058313632781,0.03289473684210531
90,668.2033096926716,0.03289473684210531
91,668.2033096926716,0.046052631578947345
92,668.2033096926716,0.03947368421052633
93,668.2033096926716,0.052631578947368474
94,671.0007880220646,0.052631578947368474
95,673.7982663514576,0.046052631578947345
96,673.7982663514576,0.052631578947368474
97,676.5957446808511,0.046052631578947345
98,676.5957446808511,0.03947368421052633
99,679.3932230102441,0.03289473684210531
100,679.3932230102441,0.03947368421052633
101,682.1907013396376,0.03289473684210531
102,682.1907013396376,0.02631578947368418
103,684.9881796690306,0.02631578947368418
104,687.7856579984241,0.02631578947368418
105,690.5831363278171,0.02631578947368418
106,693.3806146572106,0.02631578947368418
107,696.1780929866036,0.02631578947368418
108,698.9755713159971,0.019736842105263164
109,698.9755713159971,0.02631578947368418
110,701.7730496453901,0.02631578947368418
111,701.7730496453901,0.019736842105263164
112,704.5705279747831,0.02631578947368418
113,707.3680063041766,0.02631578947368418
114,707.3680063041766,0.019736842105263164
115,710.1654846335696,0.019736842105263164
116,712.962962962963,0.019736842105263164
117,715.7604412923561,0.019736842105263164
118,718.5579196217495,0.019736842105263164
119,721.3553979511425,0.019736842105263164
120,721.3553979511425,0.013157894736842146
121,724.152876280536,0.019736842105263164
122,724.152876280536,0.013157894736842146
123,726.950354609929,0.019736842105263164
124,729.7478329393225,0.019736842105263164
125,732.5453112687155,0.019736842105263164
126,735.3427895981085,0.019736842105263164
127,738.140267927502,0.019736842105263164
128,740.937746256895,0.019736842105263164
129,743.7352245862885,0.019736842105263164
130,746.5327029156815,0.019736842105263164
131,749.330181245075,0.019736842105263164
132,752.127659574468,0.019736842105263164
133,754.9251379038615,0.019736842105263164
134,757.7226162332545,0.019736842105263164
135,760.520094562648,0.019736842105263164
136,763.317572892041,0.019736842105263164
137,766.115051221434,0.019736842105263164
138,768.9125295508275,0.019736842105263164
139,771.7100078802205,0.019736842105263164
140,774.507486209614,0.019736842105263164
141,774.507486209614,0.02631578947368418
142,777.304964539007,0.02631578947368418
143,780.1024428684004,0.03289473684210531
144,780.1024428684004,0.02631578947368418
145,782.8999211977934,0.03289473684210531
146,785.6973995271869,0.03947368421052633
147,785.6973995271869,0.03289473684210531
148,788.4948778565799,0.03947368421052633
149,791.2923561859734,0.046052631578947345
150,791.2923561859734,0.03947368421052633
151,794.0898345153664,0.046052631578947345
152,794.0898345153664,0.052631578947368474
153,794.0898345153664,0.06578947368421051
154,794.0898345153664,0.05921052631578949
155,796.8873128447594,0.07894736842105265
156,796.8873128447594,0.06578947368421051
157,796.8873128447594,0.07236842105263153
158,796.8873128447594,0.08552631578947367
159,799.6847911741529,0.13157894736842102
160,799.6847911741529,0.10526315789473684
161,799.6847911741529,0.16447368421052633
162,799.6847911741529,0.09210526315789469
163,799.6847911741529,0.17105263157894735
164,799.6847911741529,0.1578947368421053
165,799.6847911741529,0.15131578947368418
166,799.6847911741529,0.09868421052631582
167,799.6847911741529,0.14473684210526316
168,799.6847911741529,0.11184210526315785
169,799.6847911741529,0.13815789473684215
170,799.6847911741529,0.08552631578947367
171,799.6847911741529,0.125
172,799.6847911741529,0.11842105263157898
173,802.4822695035459,0.1842105263157895
174,802.4822695035459,0.2171052631578947
175,802.4822695035459,0.20394736842105265
176,802.4822695035459,0.22368421052631582
177,802.4822695035459,0.17763157894736847
178,802.4822695035459,0.19736842105263153
179,802.4822695035459,0.17105263157894735
180,802.4822695035459,0.24342105263157898
181,802.4822695035459,0.23026315789473684
182,802.4822695035459,0.23684210526315785
183,802.4822695035459,0.1907894736842105
184,802.4822695035459,0.21052631578947367
185,805.2797478329394,0.24342105263157898
186,805.2797478329394,0.2894736842105263
187,805.2797478329394,0.29605263157894735
188,805.2797478329394,0.25
189,805.2797478329394,0.2763157894736842
190,805.2797478329394,0.256578947368421
191,805.2797478329394,0.26315789473684215
192,805.2797478329394,0.26973684210526316
193,805.2797478329394,0.2828947368421053
194,808.0772261623324,0.25
195,808.0772261623324,0.26973684210526316
196,808.0772261623324,0.2828947368421053
197,808.0772261623324,0.256578947368421
198,808.0772261623324,0.2894736842105263
199,808.0772261623324,0.29605263157894735
200,808.0772261623324,0.26315789473684215
201,808.0772261623324,0.2763157894736842
202,810.8747044917259,0.1907894736842105
203,810.8747044917259,0.23684210526315785
204,810.8747044917259,0.23026315789473684
205,810.8747044917259,0.25
206,810.8747044917259,0.21052631578947367
207,810.8747044917259,0.17763157894736847
208,810.8747044917259,0.19736842105263153
209,810.8747044917259,0.17105263157894735
210,810.8747044917259,0.2171052631578947
211,810.8747044917259,0.20394736842105265
212,810.8747044917259,0.1842105263157895
213,810.8747044917259,0.24342105263157898
214,810.8747044917259,0.22368421052631582
215,810.8747044917259,0.13157894736842102
216,810.8747044917259,0.15131578947368418
217,810.8747044917259,0.16447368421052633
218,810.8747044917259,0.14473684210526316
219,810.8747044917259,0.1578947368421053
220,810.8747044917259,0.13815789473684215
221,813.6721828211189,0.09868421052631582
222,813.6721828211189,0.09210526315789469
223,813.6721828211189,0.10526315789473684
224,813.6721828211189,0.11184210526315785
225,813.6721828211189,0.125
226,813.6721828211189,0.13157894736842102
227,813.6721828211189,0.11842105263157898
228,816.4696611505124,0.07894736842105265
229,816.4696611505124,0.07236842105263153
230,816.4696611505124,0.08552631578947367
231,816.4696611505124,0.09210526315789469
232,819.2671394799054,0.05921052631578949
233,819.2671394799054,0.07236842105263153
234,819.2671394799054,0.06578947368421051
235,822.0646178092989,0.05921052631578949
236,824.8620961386919,0.05921052631578949
237,824.8620961386919,0.06578947368421051
238,827.6595744680849,0.06578947368421051
239,827.6595744680849,0.07236842105263153
240,830.4570527974784,0.07894736842105265
241,830.4570527974784,0.07236842105263153
242,830.4570527974784,0.08552631578947367
243,833.2545311268714,0.08552631578947367
244,836.0520094562648,0.08552631578947367
245,838.8494877856579,0.08552631578947367
246,838.8494877856579,0.07894736842105265
247,841.6469661150513,0.06578947368421051
248,841.6469661150513,0.07894736842105265
249,841.6469661150513,0.07236842105263153
250,844.4444444444443,0.06578947368421051
251,847.2419227738378,0.06578947368421051
252,850.0394011032308,0.05921052631578949
253,850.0394011032308,0.06578947368421051
254,852.8368794326243,0.052631578947368474
255,852.8368794326243,0.05921052631578949
256,855.6343577620173,0.052631578947368474
257,858.4318360914103,0.052631578947368474
258,861.2293144208038,0.052631578947368474
259,864.0267927501968,0.052631578947368474
260,866.8242710795903,0.052631578947368474
261,869.6217494089833,0.052631578947368474
262,872.4192277383768,0.05921052631578949
263,872.4192277383768,0.052631578947368474
264,875.2167060677698,0.05921052631578949
265,875.2167060677698,0.06578947368421051
266,878.0141843971633,0.06578947368421051
267,880.8116627265563,0.06578947368421051
268,883.6091410559497,0.06578947368421051
269,886.4066193853428,0.05921052631578949
270,886.4066193853428,0.06578947368421051
271,889.2040977147362,0.06578947368421051
272,892.0015760441293,0.06578947368421051
273,894.7990543735223,0.06578947368421051
274,897.5965327029157,0.06578947368421051
275,897.5965327029157,0.05921052631578949
276,900.3940110323088,0.06578947368421051
277,900.3940110323088,0.05921052631578949
278,903.1914893617022,0.06578947368421051
279,905.9889676910952,0.06578947368421051
280,905.9889676910952,0.05921052631578949
281,908.7864460204887,0.05921052631578949
282,908.7864460204887,0.06578947368421051
283,911.5839243498817,0.06578947368421051
284,914.3814026792752,0.06578947368421051
285,917.1788810086682,0.06578947368421051
286,919.9763593380617,0.06578947368421051
287,919.9763593380617,0.07236842105263153
288,922.7738376674547,0.07894736842105265
289,922.7738376674547,0.07236842105263153
290,925.5713159968477,0.07894736842105265
291,925.5713159968477,0.08552631578947367
292,928.3687943262412,0.08552631578947367
293,931.1662726556342,0.09868421052631582
294,931.1662726556342,0.10526315789473684
295,931.1662726556342,0.08552631578947367
296,931.1662726556342,0.09210526315789469
297,933.9637509850277,0.11184210526315785
298,933.9637509850277,0.10526315789473684
299,936.7612293144207,0.11184210526315785
300,936.7612293144207,0.11842105263157898
301,939.5587076438142,0.11842105263157898
302,942.3561859732072,0.11842105263157898
303,945.1536643026006,0.11842105263157898
304,947.9511426319937,0.11842105263157898
305,947.9511426319937,0.125
306,950.7486209613871,0.13157894736842102
307,950.7486209613871,0.125
308,953.5460992907801,0.13815789473684215
309,953.5460992907801,0.13157894736842102
310,953.5460992907801,0.14473684210526316
311,953.5460992907801,0.15131578947368418
312,956.3435776201732,0.17105263157894735
313,956.3435776201732,0.1578947368421053
314,956.3435776201732,0.16447368421052633
315,956.3435776201732,0.15131578947368418
316,959.1410559495666,0.1842105263157895
317,959.1410559495666,0.1907894736842105
318,959.1410559495666,0.17763157894736847
319,959.1410559495666,0.17105263157894735
320,961.9385342789597,0.2171052631578947
321,961.9385342789597,0.1907894736842105
322,961.9385342789597,0.20394736842105265
323,961.9385342789597,0.21052631578947367
324,961.9385342789597,0.19736842105263153
325,964.7360126083531,0.22368421052631582
326,964.7360126083531,0.2171052631578947
327,967.5334909377461,0.22368421052631582
328,967.5334909377461,0.23026315789473684
329,970.3309692671396,0.23026315789473684
330,973.1284475965326,0.23026315789473684
331,973.1284475965326,0.24342105263157898
332,973.1284475965326,0.23684210526315785
333,975.9259259259261,0.25
334,975.9259259259261,0.26315789473684215
335,975.9259259259261,0.256578947368421
336,975.9259259259261,0.24342105263157898
337,978.7234042553191,0.26315789473684215
338,978.7234042553191,0.26973684210526316
339,978.7234042553191,0.2763157894736842
340,978.7234042553191,0.29605263157894735
341,978.7234042553191,0.2894736842105263
342,978.7234042553191,0.2828947368421053
343,981.5208825847126,0.29605263157894735
344,984.3183609141056,0.2894736842105263
345,984.3183609141056,0.29605263157894735
346,984.3183609141056,0.2763157894736842
347,984.3183609141056,0.2828947368421053
348,987.1158392434986,0.25
349,987.1158392434986,0.26315789473684215
350,987.1158392434986,0.256578947368421
351,987.1158392434986,0.24342105263157898
352,987.1158392434986,0.23684210526315785
353,987.1158392434986,0.23026315789473684
354,987.1158392434986,0.2763157894736842
355,987.1158392434986,0.26973684210526316
356,989.9133175728921,0.2171052631578947
357,989.9133175728921,0.22368421052631582
358,989.9133175728921,0.23026315789473684
359,989.9133175728921,0.21052631578947367
360,992.7107959022851,0.1842105263157895
361,992.7107959022851,0.20394736842105265
362,992.7107959022851,0.1907894736842105
363,992.7107959022851,0.21052631578947367
364,992.7107959022851,0.17763157894736847
365,992.7107959022851,0.19736842105263153
366,995.5082742316786,0.17763157894736847
367,995.5082742316786,0.17105263157894735
368,995.5082742316786,0.16447368421052633
369,998.3057525610716,0.15131578947368418
370,998.3057525610716,0.16447368421052633
371,998.3057525610716,0.1578947368421053
372,998.3057525610716,0.14473684210526316
373,1001.103230890465,0.14473684210526316
374,1001.103230890465,0.13815789473684215
375,1003.9007092198581,0.13815789473684215
376,1003.9007092198581,0.13157894736842102
377,1006.6981875492515,0.13157894736842102
378,1009.4956658786446,0.13157894736842102
379,1012.293144208038,0.13157894736842102
380,1015.090622537431,0.13157894736842102
381,1017.8881008668241,0.13157894736842102
382,1020.6855791962175,0.13157894736842102
383,1023.4830575256105,0.125
384,1023.4830575256105,0.13157894736842102
385,1026.280535855004,0.13157894736842102
386,1026.280535855004,0.125
387,1029.078014184397,0.14473684210526316
388,1029.078014184397,0.13815789473684215
389,1029.078014184397,0.13157894736842102
390,1031.8754925137905,0.16447368421052633
391,1031.8754925137905,0.1578947368421053
392,1031.8754925137905,0.14473684210526316
393,1031.8754925137905,0.15131578947368418
394,1034.6729708431835,0.17763157894736847
395,1034.6729708431835,0.22368421052631582
396,1034.6729708431835,0.2171052631578947
397,1034.6729708431835,0.19736842105263153
398,1034.6729708431835,0.17105263157894735
399,1034.6729708431835,0.20394736842105265
400,1034.6729708431835,0.21052631578947367
401,1034.6729708431835,0.1907894736842105
402,1034.6729708431835,0.1842105263157895
403,1034.6729708431835,0.16447368421052633
404,1037.470449172577,0.23026315789473684
405,1037.470449172577,0.22368421052631582
406,1037.470449172577,0.23684210526315785
407,1037.470449172577,0.25
408,1037.470449172577,0.256578947368421
409,1037.470449172577,0.24342105263157898
410,1040.26792750197,0.29605263157894735
411,1040.26792750197,0.2894736842105263
412,1040.26792750197,0.256578947368421
413,1040.26792750197,0.2763157894736842
414,1040.26792750197,0.2828947368421053
415,1040.26792750197,0.26315789473684215
416,1040.26792750197,0.26973684210526316
417,1043.0654058313635,0.29605263157894735
418,1043.0654058313635,0.3092105263157895
419,1043.0654058313635,0.3026315789473685
420,1045.8628841607565,0.3092105263157895
421,1045.8628841607565,0.3026315789473685
422,1048.6603624901495,0.3026315789473685
423,1051.457840819543,0.3092105263157895
424,1051.457840819543,0.3026315789473685
425,1051.457840819543,0.3157894736842105
426,1054.255319148936,0.32894736842105265
427,1054.255319148936,0.3223684210526315
428,1054.255319148936,0.3486842105263158
429,1054.255319148936,0.3157894736842105
430,1054.255319148936,0.3421052631578947
431,1054.255319148936,0.3355263157894737
432,1057.0527974783295,0.36184210526315785
433,1057.0527974783295,0.35526315789473684
434,1057.0527974783295,0.3486842105263158
435,1059.8502758077225,0.36184210526315785
436,1059.8502758077225,0.375
437,1059.8502758077225,0.368421052631579
438,1062.647754137116,0.368421052631579
439,1062.647754137116,0.375
440,1065.445232466509,0.368421052631579
441,1065.445232466509,0.36184210526315785
442,1068.2427107959024,0.36184210526315785
443,1071.0401891252955,0.368421052631579
444,1071.0401891252955,0.36184210526315785
445,1073.837667454689,0.368421052631579
446,1076.635145784082,0.368421052631579
447,1079.432624113475,0.368421052631579
448,1079.432624113475,0.375
449,1082.2301024428684,0.38815789473684215
450,1082.2301024428684,0.375
451,1082.2301024428684,0.381578947368421
452,1085.0275807722614,0.39473684210526316
453,1085.0275807722614,0.38815789473684215
454,1085.0275807722614,0.4013157894736842
455,1087.825059101655,0.4013157894736842
456,1090.622537431048,0.4013157894736842
457,1090.622537431048,0.4078947368421053
458,1090.622537431048,0.42105263157894735
459,1090.622537431048,0.4276315789473685
460,1090.622537431048,0.4144736842105263
461,1093.4200157604414,0.4276315789473685
462,1093.4200157604414,0.4342105263157895
463,1096.2174940898344,0.4407894736842105
464,1096.2174940898344,0.4473684210526315
465,1096.2174940898344,0.4342105263157895
466,1099.014972419228,0.4473684210526315
467,1099.014972419228,0.4605263157894737
468,1099.014972419228,0.45394736842105265
469,1101.812450748621,0.4605263157894737
470,1104.6099290780144,0.4605263157894737
