,wavenumbers,absorbance
0,452.797478329393,0.03289473684210531
1,452.797478329393,0.03947368421052633
2,455.5949566587865,0.03289473684210531
3,458.3924349881795,0.03289473684210531
4,458.3924349881795,0.02631578947368418
5,461.189913317573,0.02631578947368418
6,461.189913317573,0.03289473684210531
7,463.987391646966,0.02631578947368418
8,466.78486997635946,0.02631578947368418
9,469.5823483057525,0.019736842105263164
10,469.5823483057525,0.02631578947368418
11,472.37982663514595,0.019736842105263164
12,472.37982663514595,0.02631578947368418
13,475.17730496453896,0.02631578947368418
14,477.97478329393243,0.02631578947368418
15,477.97478329393243,0.019736842105263164
16,480.77226162332545,0.019736842105263164
17,483.56973995271846,0.019736842105263164
18,486.36721828211193,0.019736842105263164
19,489.16469661150495,0.019736842105263164
20,491.9621749408984,0.019736842105263164
21,494.75965327029144,0.019736842105263164
22,497.5571315996849,0.019736842105263164
23,500.3546099290779,0.019736842105263164
24,503.1520882584714,0.019736842105263164
25,505.9495665878644,0.019736842105263164
26,508.7470449172579,0.019736842105263164
27,511.5445232466509,0.019736842105263164
28,514.3420015760439,0.019736842105263164
29,517.1394799054374,0.019736842105263164
30,519.9369582348304,0.019736842105263164
31,522.7344365642239,0.019736842105263164
32,525.5319148936169,0.02631578947368418
33,525.5319148936169,0.019736842105263164
34,528.3293932230104,0.02631578947368418
35,531.1268715524034,0.02631578947368418
36,533.9243498817968,0.02631578947368418
37,536.7218282111899,0.02631578947368418
38,539.5193065405833,0.02631578947368418
39,542.3167848699763,0.02631578947368418
40,545.1142631993694,0.02631578947368418
41,547.9117415287628,0.02631578947368418
42,550.7092198581558,0.02631578947368418
43,553.5066981875493,0.02631578947368418
44,553.5066981875493,0.03289473684210531
45,556.3041765169423,0.03289473684210531
46,559.1016548463358,0.03289473684210531
47,561.8991331757288,0.03289473684210531
48,564.6966115051223,0.03289473684210531
49,567.4940898345153,0.03289473684210531
50,570.2915681639088,0.03947368421052633
51,570.2915681639088,0.03289473684210531
52,573.0890464933018,0.03947368421052633
53,575.8865248226948,0.03947368421052633
54,578.6840031520883,0.046052631578947345
55,578.6840031520883,0.03947368421052633
56,581.4814814814813,0.046052631578947345
57,584.2789598108748,0.046052631578947345
58,587.0764381402678,0.046052631578947345
59,589.8739164696613,0.046052631578947345
60,592.6713947990543,0.046052631578947345
61,595.4688731284477,0.046052631578947345
62,595.4688731284477,0.03947368421052633
63,598.2663514578408,0.03947368421052633
64,601.0638297872342,0.03947368421052633
65,603.8613081166272,0.03947368421052633
66,606.6587864460207,0.03947368421052633
67,609.4562647754137,0.03947368421052633
68,612.2537431048067,0.046052631578947345
69,612.2537431048067,0.03947368421052633
70,615.0512214342002,0.046052631578947345
71,617.8486997635932,0.046052631578947345
72,620.6461780929867,0.046052631578947345
73,623.4436564223797,0.046052631578947345
74,626.2411347517732,0.046052631578947345
75,629.0386130811662,0.046052631578947345
76,631.8360914105597,0.046052631578947345
77,634.6335697399527,0.046052631578947345
78,637.4310480693462,0.046052631578947345
79,640.2285263987392,0.046052631578947345
80,643.0260047281322,0.046052631578947345
81,645.8234830575257,0.052631578947368474
82,645.8234830575257,0.046052631578947345
83,648.6209613869187,0.052631578947368474
84,651.4184397163122,0.052631578947368474
85,654.2159180457052,0.052631578947368474
86,657.0133963750986,0.05921052631578949
87,657.0133963750986,0.052631578947368474
88,659.8108747044917,0.05921052631578949
89,662.6083530338851,0.05921052631578949
90,665.4058313632781,0.05921052631578949
91,668.2033096926716,0.06578947368421051
92,668.2033096926716,0.05921052631578949
93,671.0007880220646,0.06578947368421051
94,673.7982663514576,0.07236842105263153
95,673.7982663514576,0.06578947368421051
96,676.5957446808511,0.07236842105263153
97,679.3932230102441,0.07236842105263153
98,682.1907013396376,0.07236842105263153
99,682.1907013396376,0.07894736842105265
100,684.9881796690306,0.07894736842105265
101,684.9881796690306,0.08552631578947367
102,687.7856579984241,0.08552631578947367
103,690.5831363278171,0.08552631578947367
104,693.3806146572106,0.09210526315789469
105,693.3806146572106,0.08552631578947367
106,696.1780929866036,0.09868421052631582
107,696.1780929866036,0.09210526315789469
108,698.9755713159971,0.09868421052631582
109,701.7730496453901,0.09868421052631582
110,704.5705279747831,0.09868421052631582
111,707.3680063041766,0.09868421052631582
112,707.3680063041766,0.10526315789473684
113,710.1654846335696,0.10526315789473684
114,710.1654846335696,0.11184210526315785
115,712.962962962963,0.11842105263157898
116,712.962962962963,0.11184210526315785
117,712.962962962963,0.125
118,715.7604412923561,0.13157894736842102
119,715.7604412923561,0.13815789473684215
120,715.7604412923561,0.125
121,718.5579196217495,0.13815789473684215
122,721.3553979511425,0.13157894736842102
123,721.3553979511425,0.13815789473684215
124,724.152876280536,0.11842105263157898
125,724.152876280536,0.13157894736842102
126,724.152876280536,0.125
127,726.950354609929,0.11184210526315785
128,726.950354609929,0.11842105263157898
129,729.7478329393225,0.11184210526315785
130,729.7478329393225,0.10526315789473684
131,732.5453112687155,0.10526315789473684
132,735.3427895981085,0.10526315789473684
133,735.3427895981085,0.09868421052631582
134,738.140267927502,0.09868421052631582
135,740.937746256895,0.09868421052631582
136,740.937746256895,0.09210526315789469
137,743.7352245862885,0.09210526315789469
138,743.7352245862885,0.08552631578947367
139,746.5327029156815,0.08552631578947367
140,749.330181245075,0.08552631578947367
141,752.127659574468,0.08552631578947367
142,754.9251379038615,0.08552631578947367
143,754.9251379038615,0.07894736842105265
144,757.7226162332545,0.07894736842105265
145,760.520094562648,0.07236842105263153
146,760.520094562648,0.07894736842105265
147,763.317572892041,0.07236842105263153
148,766.115051221434,0.07236842105263153
149,768.9125295508275,0.06578947368421051
150,768.9125295508275,0.07236842105263153
151,774.507486209614,0.06578947368421051
152,777.304964539007,0.06578947368421051
153,777.304964539007,0.05921052631578949
154,780.1024428684004,0.05921052631578949
155,782.8999211977934,0.05921052631578949
156,785.6973995271869,0.05921052631578949
157,785.6973995271869,0.052631578947368474
158,788.4948778565799,0.052631578947368474
159,791.2923561859734,0.052631578947368474
160,794.0898345153664,0.046052631578947345
161,794.0898345153664,0.052631578947368474
162,796.8873128447594,0.046052631578947345
163,799.6847911741529,0.046052631578947345
164,802.4822695035459,0.046052631578947345
165,805.2797478329394,0.046052631578947345
166,805.2797478329394,0.03947368421052633
167,808.0772261623324,0.03947368421052633
168,810.8747044917259,0.03947368421052633
169,813.6721828211189,0.03947368421052633
170,816.4696611505124,0.03947368421052633
171,819.2671394799054,0.03947368421052633
172,822.0646178092989,0.03947368421052633
173,824.8620961386919,0.03947368421052633
174,827.6595744680849,0.03947368421052633
175,830.4570527974784,0.03947368421052633
176,833.2545311268714,0.03947368421052633
177,836.0520094562648,0.03947368421052633
178,838.8494877856579,0.03947368421052633
179,841.6469661150513,0.03947368421052633
180,844.4444444444443,0.03947368421052633
181,847.2419227738378,0.03947368421052633
182,850.0394011032308,0.03947368421052633
183,852.8368794326243,0.03947368421052633
184,855.6343577620173,0.03947368421052633
185,858.4318360914103,0.03947368421052633
186,861.2293144208038,0.03947368421052633
187,864.0267927501968,0.03947368421052633
188,866.8242710795903,0.03947368421052633
189,869.6217494089833,0.03947368421052633
190,872.4192277383768,0.03947368421052633
191,875.2167060677698,0.03947368421052633
192,878.0141843971633,0.03947368421052633
193,880.8116627265563,0.03947368421052633
194,883.6091410559497,0.03947368421052633
195,886.4066193853428,0.03947368421052633
196,889.2040977147362,0.03947368421052633
197,892.0015760441293,0.03947368421052633
198,894.7990543735223,0.03947368421052633
199,897.5965327029157,0.03947368421052633
200,900.3940110323088,0.03947368421052633
201,903.1914893617022,0.03947368421052633
202,905.9889676910952,0.03947368421052633
203,908.7864460204887,0.03947368421052633
204,911.5839243498817,0.03947368421052633
205,914.3814026792752,0.03947368421052633
206,917.1788810086682,0.03947368421052633
207,919.9763593380617,0.03947368421052633
208,922.7738376674547,0.03947368421052633
209,925.5713159968477,0.03947368421052633
210,928.3687943262412,0.03947368421052633
211,931.1662726556342,0.03947368421052633
212,933.9637509850277,0.03947368421052633
213,936.7612293144207,0.03947368421052633
214,939.5587076438142,0.03947368421052633
215,942.3561859732072,0.046052631578947345
216,942.3561859732072,0.03947368421052633
217,945.1536643026006,0.046052631578947345
218,947.9511426319937,0.046052631578947345
219,950.7486209613871,0.046052631578947345
220,953.5460992907801,0.046052631578947345
221,956.3435776201732,0.046052631578947345
222,959.1410559495666,0.052631578947368474
223,959.1410559495666,0.046052631578947345
224,961.9385342789597,0.052631578947368474
225,964.7360126083531,0.052631578947368474
226,967.5334909377461,0.046052631578947345
227,967.5334909377461,0.052631578947368474
228,970.3309692671396,0.046052631578947345
229,973.1284475965326,0.046052631578947345
230,973.1284475965326,0.03947368421052633
231,975.9259259259261,0.03947368421052633
232,978.7234042553191,0.03947368421052633
233,981.5208825847126,0.03947368421052633
234,984.3183609141056,0.03947368421052633
235,987.1158392434986,0.03947368421052633
236,989.9133175728921,0.03947368421052633
237,992.7107959022851,0.03947368421052633
238,995.5082742316786,0.03947368421052633
239,998.3057525610716,0.03947368421052633
240,1001.103230890465,0.03947368421052633
241,1003.9007092198581,0.03947368421052633
242,1006.6981875492515,0.03947368421052633
243,1009.4956658786446,0.046052631578947345
244,1009.4956658786446,0.03947368421052633
245,1012.293144208038,0.046052631578947345
246,1015.090622537431,0.046052631578947345
247,1017.8881008668241,0.046052631578947345
248,1020.6855791962175,0.046052631578947345
249,1023.4830575256105,0.052631578947368474
250,1023.4830575256105,0.046052631578947345
251,1026.280535855004,0.052631578947368474
252,1029.078014184397,0.05921052631578949
253,1029.078014184397,0.052631578947368474
254,1031.8754925137905,0.05921052631578949
255,1034.6729708431835,0.05921052631578949
256,1034.6729708431835,0.06578947368421051
257,1037.470449172577,0.06578947368421051
258,1040.26792750197,0.06578947368421051
259,1040.26792750197,0.05921052631578949
260,1043.0654058313635,0.06578947368421051
261,1043.0654058313635,0.05921052631578949
262,1045.8628841607565,0.06578947368421051
263,1048.6603624901495,0.06578947368421051
264,1051.457840819543,0.06578947368421051
265,1054.255319148936,0.06578947368421051
266,1054.255319148936,0.07236842105263153
267,1057.0527974783295,0.07236842105263153
268,1059.8502758077225,0.07894736842105265
269,1059.8502758077225,0.07236842105263153
270,1062.647754137116,0.08552631578947367
271,1062.647754137116,0.07894736842105265
272,1065.445232466509,0.09210526315789469
273,1065.445232466509,0.08552631578947367
274,1068.2427107959024,0.09210526315789469
275,1068.2427107959024,0.09868421052631582
276,1071.0401891252955,0.09210526315789469
277,1071.0401891252955,0.09868421052631582
278,1073.837667454689,0.08552631578947367
279,1073.837667454689,0.09210526315789469
280,1076.635145784082,0.07894736842105265
281,1076.635145784082,0.08552631578947367
282,1079.432624113475,0.07894736842105265
283,1079.432624113475,0.07236842105263153
284,1082.2301024428684,0.07236842105263153
285,1085.0275807722614,0.07236842105263153
286,1087.825059101655,0.07236842105263153
287,1090.622537431048,0.07236842105263153
288,1093.4200157604414,0.07236842105263153
289,1096.2174940898344,0.07236842105263153
290,1096.2174940898344,0.07894736842105265
291,1099.014972419228,0.07894736842105265
292,1101.812450748621,0.07894736842105265
293,1104.6099290780144,0.08552631578947367
294,1104.6099290780144,0.07894736842105265
295,1104.6099290780144,0.09210526315789469
296,1107.4074074074074,0.09868421052631582
297,1107.4074074074074,0.09210526315789469
298,1110.2048857368004,0.09868421052631582
299,1110.2048857368004,0.10526315789473684
300,1110.2048857368004,0.11184210526315785
301,1113.0023640661939,0.11842105263157898
302,1113.0023640661939,0.11184210526315785
303,1115.799842395587,0.125
304,1115.799842395587,0.11842105263157898
305,1118.5973207249804,0.13157894736842102
306,1118.5973207249804,0.125
307,1121.3947990543734,0.13157894736842102
308,1124.1922773837669,0.13157894736842102
309,1126.9897557131599,0.13157894736842102
310,1129.7872340425533,0.13815789473684215
311,1129.7872340425533,0.13157894736842102
312,1132.5847123719464,0.13815789473684215
313,1135.3821907013398,0.13157894736842102
314,1135.3821907013398,0.13815789473684215
315,1138.1796690307328,0.13157894736842102
316,1140.9771473601263,0.13157894736842102
317,1140.9771473601263,0.125
318,1143.7746256895193,0.11842105263157898
319,1143.7746256895193,0.125
320,1146.5721040189123,0.11842105263157898
321,1146.5721040189123,0.11184210526315785
322,1149.3695823483058,0.11184210526315785
323,1149.3695823483058,0.10526315789473684
324,1152.1670606776988,0.10526315789473684
325,1152.1670606776988,0.09868421052631582
326,1154.9645390070923,0.09868421052631582
327,1154.9645390070923,0.09210526315789469
328,1157.7620173364853,0.09210526315789469
329,1160.5594956658788,0.08552631578947367
330,1160.5594956658788,0.09210526315789469
331,1160.5594956658788,0.07894736842105265
332,1163.3569739952718,0.07894736842105265
333,1166.1544523246653,0.07236842105263153
334,1166.1544523246653,0.07894736842105265
335,1168.9519306540583,0.07236842105263153
336,1171.7494089834518,0.07236842105263153
337,1174.5468873128448,0.07236842105263153
338,1174.5468873128448,0.07894736842105265
339,1177.3443656422378,0.07894736842105265
340,1180.1418439716313,0.07894736842105265
341,1182.9393223010243,0.07894736842105265
342,1185.7368006304177,0.07894736842105265
343,1185.7368006304177,0.08552631578947367
344,1188.5342789598108,0.08552631578947367
345,1191.3317572892042,0.08552631578947367
346,1191.3317572892042,0.09210526315789469
347,1194.1292356185972,0.09210526315789469
348,1196.9267139479907,0.09210526315789469
349,1196.9267139479907,0.09868421052631582
350,1199.7241922773837,0.10526315789473684
351,1199.7241922773837,0.09868421052631582
352,1202.5216706067772,0.10526315789473684
353,1202.5216706067772,0.11184210526315785
354,1205.3191489361702,0.11184210526315785
355,1208.1166272655632,0.11184210526315785
356,1208.1166272655632,0.11842105263157898
357,1210.9141055949567,0.11842105263157898
358,1213.7115839243497,0.11842105263157898
359,1216.5090622537432,0.125
360,1216.5090622537432,0.11842105263157898
361,1219.3065405831362,0.125
362,1222.1040189125297,0.13157894736842102
363,1222.1040189125297,0.125
364,1224.9014972419227,0.13157894736842102
365,1227.6989755713162,0.13815789473684215
366,1227.6989755713162,0.13157894736842102
367,1230.4964539007092,0.14473684210526316
368,1230.4964539007092,0.13815789473684215
369,1233.2939322301027,0.14473684210526316
370,1236.0914105594957,0.15131578947368418
371,1236.0914105594957,0.14473684210526316
372,1238.8888888888887,0.1578947368421053
373,1238.8888888888887,0.15131578947368418
374,1241.6863672182822,0.16447368421052633
375,1241.6863672182822,0.1578947368421053
376,1244.4838455476752,0.17105263157894735
377,1244.4838455476752,0.16447368421052633
378,1247.2813238770686,0.17105263157894735
379,1247.2813238770686,0.17763157894736847
380,1250.0788022064617,0.17763157894736847
381,1252.8762805358551,0.1842105263157895
382,1252.8762805358551,0.17763157894736847
383,1255.6737588652481,0.1907894736842105
384,1255.6737588652481,0.1842105263157895
385,1258.4712371946416,0.1907894736842105
386,1258.4712371946416,0.19736842105263153
387,1261.2687155240346,0.19736842105263153
388,1264.066193853428,0.20394736842105265
389,1264.066193853428,0.19736842105263153
390,1266.8636721828211,0.20394736842105265
391,1269.6611505122141,0.20394736842105265
392,1272.4586288416076,0.20394736842105265
393,1272.4586288416076,0.19736842105263153
394,1275.2561071710006,0.19736842105263153
395,1278.053585500394,0.1907894736842105
396,1278.053585500394,0.19736842105263153
397,1280.851063829787,0.1907894736842105
398,1283.6485421591806,0.1907894736842105
399,1286.4460204885736,0.1842105263157895
400,1286.4460204885736,0.1907894736842105
401,1289.243498817967,0.17763157894736847
402,1289.243498817967,0.1842105263157895
403,1292.04097714736,0.17105263157894735
404,1292.04097714736,0.17763157894736847
405,1294.8384554767536,0.17105263157894735
406,1294.8384554767536,0.16447368421052633
407,1297.6359338061466,0.16447368421052633
408,1300.4334121355396,0.16447368421052633
409,1300.4334121355396,0.1578947368421053
410,1303.230890464933,0.1578947368421053
411,1303.230890464933,0.15131578947368418
412,1303.230890464933,0.14473684210526316
413,1306.028368794326,0.14473684210526316
414,1306.028368794326,0.13815789473684215
415,1308.8258471237195,0.13815789473684215
416,1308.8258471237195,0.13157894736842102
417,1311.6233254531126,0.13157894736842102
418,1314.420803782506,0.13157894736842102
419,1314.420803782506,0.125
420,1317.218282111899,0.125
421,1320.0157604412925,0.125
422,1322.8132387706855,0.125
423,1325.610717100079,0.125
424,1328.408195429472,0.13157894736842102
425,1328.408195429472,0.125
426,1331.205673758865,0.13157894736842102
427,1334.0031520882585,0.13815789473684215
428,1334.0031520882585,0.13157894736842102
429,1336.8006304176515,0.13815789473684215
430,1339.598108747045,0.13815789473684215
431,1339.598108747045,0.14473684210526316
432,1342.395587076438,0.14473684210526316
433,1345.1930654058315,0.14473684210526316
434,1345.1930654058315,0.15131578947368418
435,1347.9905437352245,0.1578947368421053
436,1347.9905437352245,0.15131578947368418
437,1350.788022064618,0.16447368421052633
438,1350.788022064618,0.1578947368421053
439,1353.585500394011,0.16447368421052633
440,1356.3829787234044,0.16447368421052633
441,1359.1804570527975,0.17105263157894735
442,1359.1804570527975,0.16447368421052633
443,1361.9779353821905,0.17105263157894735
444,1361.9779353821905,0.17763157894736847
445,1364.775413711584,0.17763157894736847
446,1364.775413711584,0.1842105263157895
447,1367.572892040977,0.1842105263157895
448,1370.3703703703704,0.1907894736842105
449,1370.3703703703704,0.1842105263157895
450,1370.3703703703704,0.19736842105263153
451,1370.3703703703704,0.20394736842105265
452,1373.1678486997635,0.20394736842105265
453,1375.965327029157,0.20394736842105265
454,1375.965327029157,0.19736842105263153
455,1375.965327029157,0.1842105263157895
456,1375.965327029157,0.1907894736842105
457,1378.76280535855,0.1842105263157895
458,1378.76280535855,0.17763157894736847
459,1381.5602836879434,0.16447368421052633
460,1381.5602836879434,0.17763157894736847
461,1381.5602836879434,0.17105263157894735
462,1384.3577620173364,0.16447368421052633
463,1384.3577620173364,0.15131578947368418
464,1384.3577620173364,0.1578947368421053
465,1387.15524034673,0.14473684210526316
466,1387.15524034673,0.15131578947368418
