,wavenumbers,absorbance
0,452.797478329393,0.02631578947368418
1,455.5949566587865,0.02631578947368418
2,458.3924349881795,0.02631578947368418
3,461.189913317573,0.02631578947368418
4,463.987391646966,0.02631578947368418
5,466.78486997635946,0.02631578947368418
6,469.5823483057525,0.02631578947368418
7,472.37982663514595,0.02631578947368418
8,475.17730496453896,0.02631578947368418
9,477.97478329393243,0.02631578947368418
10,480.77226162332545,0.02631578947368418
11,483.56973995271846,0.02631578947368418
12,486.36721828211193,0.02631578947368418
13,489.16469661150495,0.02631578947368418
14,491.9621749408984,0.02631578947368418
15,494.75965327029144,0.02631578947368418
16,497.5571315996849,0.02631578947368418
17,497.5571315996849,0.03289473684210531
18,500.3546099290779,0.03289473684210531
19,500.3546099290779,0.03947368421052633
20,503.1520882584714,0.03947368421052633
21,505.9495665878644,0.03947368421052633
22,508.7470449172579,0.03947368421052633
23,511.5445232466509,0.03947368421052633
24,514.3420015760439,0.03947368421052633
25,517.1394799054374,0.03947368421052633
26,519.9369582348304,0.03947368421052633
27,522.7344365642239,0.03947368421052633
28,525.5319148936169,0.046052631578947345
29,525.5319148936169,0.03947368421052633
30,528.3293932230104,0.046052631578947345
31,531.1268715524034,0.046052631578947345
32,531.1268715524034,0.052631578947368474
33,533.9243498817968,0.052631578947368474
34,536.7218282111899,0.05921052631578949
35,536.7218282111899,0.052631578947368474
36,539.5193065405833,0.05921052631578949
37,539.5193065405833,0.06578947368421051
38,542.3167848699763,0.06578947368421051
39,545.1142631993694,0.06578947368421051
40,547.9117415287628,0.06578947368421051
41,550.7092198581558,0.06578947368421051
42,553.5066981875493,0.06578947368421051
43,556.3041765169423,0.05921052631578949
44,556.3041765169423,0.06578947368421051
45,559.1016548463358,0.05921052631578949
46,561.8991331757288,0.052631578947368474
47,561.8991331757288,0.05921052631578949
48,564.6966115051223,0.046052631578947345
49,564.6966115051223,0.052631578947368474
50,567.4940898345153,0.046052631578947345
51,570.2915681639088,0.046052631578947345
52,570.2915681639088,0.03947368421052633
53,573.0890464933018,0.03947368421052633
54,575.8865248226948,0.03947368421052633
55,575.8865248226948,0.03289473684210531
56,578.6840031520883,0.03289473684210531
57,581.4814814814813,0.03289473684210531
58,584.2789598108748,0.03289473684210531
59,587.0764381402678,0.02631578947368418
60,587.0764381402678,0.03289473684210531
61,589.8739164696613,0.02631578947368418
62,592.6713947990543,0.02631578947368418
63,595.4688731284477,0.02631578947368418
64,598.2663514578408,0.02631578947368418
65,601.0638297872342,0.02631578947368418
66,603.8613081166272,0.02631578947368418
67,606.6587864460207,0.02631578947368418
68,609.4562647754137,0.02631578947368418
69,612.2537431048067,0.02631578947368418
70,615.0512214342002,0.02631578947368418
71,617.8486997635932,0.02631578947368418
72,620.6461780929867,0.02631578947368418
73,620.6461780929867,0.019736842105263164
74,623.4436564223797,0.019736842105263164
75,626.2411347517732,0.019736842105263164
76,629.0386130811662,0.019736842105263164
77,631.8360914105597,0.019736842105263164
78,634.6335697399527,0.019736842105263164
79,637.4310480693462,0.013157894736842146
80,637.4310480693462,0.019736842105263164
81,640.2285263987392,0.019736842105263164
82,643.0260047281322,0.013157894736842146
83,643.0260047281322,0.019736842105263164
84,645.8234830575257,0.019736842105263164
85,648.6209613869187,0.019736842105263164
86,651.4184397163122,0.019736842105263164
87,654.2159180457052,0.019736842105263164
88,657.0133963750986,0.019736842105263164
89,659.8108747044917,0.02631578947368418
90,659.8108747044917,0.019736842105263164
91,662.6083530338851,0.02631578947368418
92,665.4058313632781,0.02631578947368418
93,668.2033096926716,0.03289473684210531
94,668.2033096926716,0.02631578947368418
95,671.0007880220646,0.03289473684210531
96,673.7982663514576,0.03289473684210531
97,676.5957446808511,0.03289473684210531
98,676.5957446808511,0.03947368421052633
99,679.3932230102441,0.03947368421052633
100,679.3932230102441,0.046052631578947345
101,682.1907013396376,0.046052631578947345
102,682.1907013396376,0.052631578947368474
103,682.1907013396376,0.05921052631578949
104,684.9881796690306,0.06578947368421051
105,684.9881796690306,0.07894736842105265
106,684.9881796690306,0.07236842105263153
107,684.9881796690306,0.05921052631578949
108,687.7856579984241,0.17105263157894735
109,687.7856579984241,0.13815789473684215
110,687.7856579984241,0.07894736842105265
111,687.7856579984241,0.08552631578947367
112,687.7856579984241,0.13157894736842102
113,687.7856579984241,0.09210526315789469
114,687.7856579984241,0.14473684210526316
115,687.7856579984241,0.09868421052631582
116,687.7856579984241,0.15131578947368418
117,687.7856579984241,0.10526315789473684
118,687.7856579984241,0.125
119,687.7856579984241,0.1578947368421053
120,687.7856579984241,0.19736842105263153
121,687.7856579984241,0.17763157894736847
122,687.7856579984241,0.11184210526315785
123,687.7856579984241,0.16447368421052633
124,687.7856579984241,0.1842105263157895
125,687.7856579984241,0.1907894736842105
126,687.7856579984241,0.11842105263157898
127,690.5831363278171,0.3355263157894737
128,690.5831363278171,0.2828947368421053
129,690.5831363278171,0.3157894736842105
130,690.5831363278171,0.29605263157894735
131,690.5831363278171,0.3026315789473685
132,690.5831363278171,0.3092105263157895
133,690.5831363278171,0.2763157894736842
134,690.5831363278171,0.2894736842105263
135,690.5831363278171,0.26973684210526316
136,690.5831363278171,0.3223684210526315
137,690.5831363278171,0.2171052631578947
138,690.5831363278171,0.19736842105263153
139,690.5831363278171,0.20394736842105265
140,690.5831363278171,0.21052631578947367
141,690.5831363278171,0.26315789473684215
142,690.5831363278171,0.22368421052631582
143,690.5831363278171,0.23026315789473684
144,690.5831363278171,0.256578947368421
145,690.5831363278171,0.32894736842105265
146,690.5831363278171,0.24342105263157898
147,690.5831363278171,0.25
148,690.5831363278171,0.23684210526315785
149,693.3806146572106,0.5328947368421053
150,693.3806146572106,0.5460526315789473
151,693.3806146572106,0.5789473684210527
152,693.3806146572106,0.513157894736842
153,693.3806146572106,0.5
154,693.3806146572106,0.5197368421052632
155,693.3806146572106,0.5263157894736843
156,693.3806146572106,0.5526315789473684
157,693.3806146572106,0.5592105263157895
158,693.3806146572106,0.5723684210526316
159,693.3806146572106,0.506578947368421
160,693.3806146572106,0.4671052631578947
161,693.3806146572106,0.5657894736842105
162,693.3806146572106,0.4342105263157895
163,693.3806146572106,0.5855263157894737
164,693.3806146572106,0.611842105263158
165,693.3806146572106,0.4078947368421053
166,693.3806146572106,0.4605263157894737
167,693.3806146572106,0.618421052631579
168,693.3806146572106,0.3355263157894737
169,693.3806146572106,0.48026315789473684
170,693.3806146572106,0.625
171,693.3806146572106,0.4144736842105263
172,693.3806146572106,0.631578947368421
173,693.3806146572106,0.42105263157894735
174,693.3806146572106,0.45394736842105265
175,693.3806146572106,0.4473684210526315
176,693.3806146572106,0.4736842105263158
177,693.3806146572106,0.4407894736842105
178,693.3806146572106,0.4276315789473685
179,693.3806146572106,0.4013157894736842
180,693.3806146572106,0.39473684210526316
181,693.3806146572106,0.5394736842105263
182,693.3806146572106,0.6052631578947368
183,693.3806146572106,0.3421052631578947
184,693.3806146572106,0.381578947368421
185,693.3806146572106,0.48684210526315785
186,693.3806146572106,0.5986842105263157
187,693.3806146572106,0.3486842105263158
188,693.3806146572106,0.493421052631579
189,693.3806146572106,0.375
190,693.3806146572106,0.35526315789473684
191,693.3806146572106,0.38815789473684215
192,693.3806146572106,0.368421052631579
193,693.3806146572106,0.5921052631578947
194,693.3806146572106,0.36184210526315785
195,696.1780929866036,0.631578947368421
196,698.9755713159971,0.4144736842105263
197,698.9755713159971,0.4276315789473685
198,698.9755713159971,0.513157894736842
199,698.9755713159971,0.4342105263157895
200,698.9755713159971,0.5328947368421053
201,698.9755713159971,0.506578947368421
202,698.9755713159971,0.4736842105263158
203,698.9755713159971,0.5
204,698.9755713159971,0.45394736842105265
205,698.9755713159971,0.4407894736842105
206,698.9755713159971,0.4473684210526315
207,698.9755713159971,0.48684210526315785
208,698.9755713159971,0.42105263157894735
209,698.9755713159971,0.4078947368421053
210,698.9755713159971,0.5263157894736843
211,698.9755713159971,0.4605263157894737
212,698.9755713159971,0.5197368421052632
213,698.9755713159971,0.493421052631579
214,698.9755713159971,0.48026315789473684
215,698.9755713159971,0.4671052631578947
216,698.9755713159971,0.618421052631579
217,698.9755713159971,0.631578947368421
218,698.9755713159971,0.625
219,698.9755713159971,0.5592105263157895
220,698.9755713159971,0.5723684210526316
221,698.9755713159971,0.5394736842105263
222,698.9755713159971,0.5789473684210527
223,698.9755713159971,0.5526315789473684
224,698.9755713159971,0.6052631578947368
225,698.9755713159971,0.611842105263158
226,698.9755713159971,0.5855263157894737
227,698.9755713159971,0.5657894736842105
228,698.9755713159971,0.5460526315789473
229,698.9755713159971,0.5986842105263157
230,698.9755713159971,0.5921052631578947
231,701.7730496453901,0.3421052631578947
232,701.7730496453901,0.381578947368421
233,701.7730496453901,0.2828947368421053
234,701.7730496453901,0.375
235,701.7730496453901,0.4078947368421053
236,701.7730496453901,0.2894736842105263
237,701.7730496453901,0.29605263157894735
238,701.7730496453901,0.39473684210526316
239,701.7730496453901,0.3026315789473685
240,701.7730496453901,0.3092105263157895
241,701.7730496453901,0.3157894736842105
242,701.7730496453901,0.368421052631579
243,701.7730496453901,0.36184210526315785
244,701.7730496453901,0.3223684210526315
245,701.7730496453901,0.35526315789473684
246,701.7730496453901,0.32894736842105265
247,701.7730496453901,0.3486842105263158
248,701.7730496453901,0.3355263157894737
249,701.7730496453901,0.4013157894736842
250,701.7730496453901,0.2763157894736842
251,701.7730496453901,0.38815789473684215
252,704.5705279747831,0.256578947368421
253,704.5705279747831,0.17763157894736847
254,704.5705279747831,0.1842105263157895
255,704.5705279747831,0.1907894736842105
256,704.5705279747831,0.19736842105263153
257,704.5705279747831,0.20394736842105265
258,704.5705279747831,0.2171052631578947
259,704.5705279747831,0.22368421052631582
260,704.5705279747831,0.23026315789473684
261,704.5705279747831,0.23684210526315785
262,704.5705279747831,0.21052631578947367
263,704.5705279747831,0.17105263157894735
264,704.5705279747831,0.26973684210526316
265,704.5705279747831,0.24342105263157898
266,704.5705279747831,0.25
267,704.5705279747831,0.26315789473684215
268,707.3680063041766,0.07894736842105265
269,707.3680063041766,0.09868421052631582
270,707.3680063041766,0.10526315789473684
271,707.3680063041766,0.13157894736842102
272,707.3680063041766,0.15131578947368418
273,707.3680063041766,0.11184210526315785
274,707.3680063041766,0.09210526315789469
275,707.3680063041766,0.1578947368421053
276,707.3680063041766,0.11842105263157898
277,707.3680063041766,0.06578947368421051
278,707.3680063041766,0.08552631578947367
279,707.3680063041766,0.125
280,707.3680063041766,0.13815789473684215
281,707.3680063041766,0.14473684210526316
282,707.3680063041766,0.16447368421052633
283,707.3680063041766,0.07236842105263153
284,707.3680063041766,0.17105263157894735
285,707.3680063041766,0.05921052631578949
286,710.1654846335696,0.046052631578947345
287,710.1654846335696,0.052631578947368474
288,710.1654846335696,0.03947368421052633
289,710.1654846335696,0.05921052631578949
290,712.962962962963,0.03289473684210531
291,712.962962962963,0.03947368421052633
292,715.7604412923561,0.03289473684210531
293,718.5579196217495,0.03289473684210531
294,718.5579196217495,0.03947368421052633
295,718.5579196217495,0.046052631578947345
296,718.5579196217495,0.052631578947368474
297,721.3553979511425,0.05921052631578949
298,721.3553979511425,0.07236842105263153
299,721.3553979511425,0.07894736842105265
300,721.3553979511425,0.052631578947368474
301,721.3553979511425,0.06578947368421051
302,724.152876280536,0.11842105263157898
303,724.152876280536,0.08552631578947367
304,724.152876280536,0.09210526315789469
305,724.152876280536,0.09868421052631582
306,724.152876280536,0.10526315789473684
307,724.152876280536,0.11184210526315785
308,724.152876280536,0.13815789473684215
309,724.152876280536,0.125
310,724.152876280536,0.07894736842105265
311,724.152876280536,0.13157894736842102
312,724.152876280536,0.14473684210526316
313,726.950354609929,0.14473684210526316
314,726.950354609929,0.1578947368421053
315,726.950354609929,0.15131578947368418
316,729.7478329393225,0.1578947368421053
317,729.7478329393225,0.15131578947368418
318,732.5453112687155,0.15131578947368418
319,732.5453112687155,0.13157894736842102
320,732.5453112687155,0.14473684210526316
321,732.5453112687155,0.13815789473684215
322,735.3427895981085,0.13157894736842102
323,735.3427895981085,0.125
324,738.140267927502,0.125
325,738.140267927502,0.11842105263157898
326,740.937746256895,0.125
327,740.937746256895,0.11842105263157898
328,743.7352245862885,0.14473684210526316
329,743.7352245862885,0.125
330,743.7352245862885,0.13157894736842102
331,743.7352245862885,0.13815789473684215
332,746.5327029156815,0.14473684210526316
333,746.5327029156815,0.1578947368421053
334,746.5327029156815,0.15131578947368418
335,749.330181245075,0.1578947368421053
336,749.330181245075,0.17105263157894735
337,749.330181245075,0.16447368421052633
338,749.330181245075,0.1907894736842105
339,749.330181245075,0.17763157894736847
340,749.330181245075,0.1842105263157895
341,752.127659574468,0.1907894736842105
342,752.127659574468,0.20394736842105265
343,752.127659574468,0.21052631578947367
344,752.127659574468,0.19736842105263153
345,754.9251379038615,0.22368421052631582
346,754.9251379038615,0.23026315789473684
347,754.9251379038615,0.23684210526315785
348,754.9251379038615,0.21052631578947367
349,754.9251379038615,0.2171052631578947
350,757.7226162332545,0.23684210526315785
351,757.7226162332545,0.23026315789473684
352,760.520094562648,0.23026315789473684
353,760.520094562648,0.2171052631578947
354,760.520094562648,0.22368421052631582
355,763.317572892041,0.2171052631578947
356,763.317572892041,0.17105263157894735
357,763.317572892041,0.20394736842105265
358,763.317572892041,0.1907894736842105
359,763.317572892041,0.1842105263157895
360,763.317572892041,0.17763157894736847
361,763.317572892041,0.21052631578947367
362,763.317572892041,0.19736842105263153
363,766.115051221434,0.14473684210526316
364,766.115051221434,0.16447368421052633
365,766.115051221434,0.17105263157894735
366,766.115051221434,0.15131578947368418
367,766.115051221434,0.1578947368421053
368,768.9125295508275,0.13157894736842102
369,768.9125295508275,0.13815789473684215
370,768.9125295508275,0.125
371,768.9125295508275,0.11184210526315785
372,768.9125295508275,0.14473684210526316
373,768.9125295508275,0.10526315789473684
374,768.9125295508275,0.09868421052631582
375,768.9125295508275,0.11842105263157898
376,771.7100078802205,0.08552631578947367
377,771.7100078802205,0.09868421052631582
378,771.7100078802205,0.07894736842105265
379,771.7100078802205,0.09210526315789469
380,774.507486209614,0.06578947368421051
381,774.507486209614,0.05921052631578949
382,774.507486209614,0.07236842105263153
383,774.507486209614,0.07894736842105265
384,777.304964539007,0.052631578947368474
385,777.304964539007,0.05921052631578949
386,780.1024428684004,0.046052631578947345
387,780.1024428684004,0.03947368421052633
388,780.1024428684004,0.052631578947368474
389,782.8999211977934,0.03289473684210531
390,782.8999211977934,0.03947368421052633
391,785.6973995271869,0.03289473684210531
392,785.6973995271869,0.02631578947368418
393,788.4948778565799,0.02631578947368418
394,791.2923561859734,0.019736842105263164
395,791.2923561859734,0.02631578947368418
396,794.0898345153664,0.019736842105263164
397,796.8873128447594,0.019736842105263164
398,799.6847911741529,0.019736842105263164
399,799.6847911741529,0.02631578947368418
400,802.4822695035459,0.02631578947368418
401,805.2797478329394,0.02631578947368418
402,808.0772261623324,0.019736842105263164
403,808.0772261623324,0.02631578947368418
404,810.8747044917259,0.019736842105263164
405,813.6721828211189,0.019736842105263164
406,816.4696611505124,0.019736842105263164
407,816.4696611505124,0.02631578947368418
408,819.2671394799054,0.02631578947368418
409,822.0646178092989,0.02631578947368418
410,824.8620961386919,0.03289473684210531
411,824.8620961386919,0.02631578947368418
412,827.6595744680849,0.03289473684210531
413,830.4570527974784,0.046052631578947345
414,830.4570527974784,0.03947368421052633
415,830.4570527974784,0.03289473684210531
416,833.2545311268714,0.046052631578947345
417,833.2545311268714,0.052631578947368474
418,836.0520094562648,0.052631578947368474
419,836.0520094562648,0.05921052631578949
420,838.8494877856579,0.05921052631578949
421,841.6469661150513,0.05921052631578949
422,841.6469661150513,0.052631578947368474
423,841.6469661150513,0.046052631578947345
424,844.4444444444443,0.03947368421052633
425,844.4444444444443,0.046052631578947345
426,847.2419227738378,0.03947368421052633
427,847.2419227738378,0.03289473684210531
428,850.0394011032308,0.02631578947368418
429,850.0394011032308,0.03289473684210531
430,852.8368794326243,0.02631578947368418
431,855.6343577620173,0.02631578947368418
432,855.6343577620173,0.019736842105263164
433,858.4318360914103,0.019736842105263164
434,861.2293144208038,0.019736842105263164
435,864.0267927501968,0.019736842105263164
436,866.8242710795903,0.019736842105263164
437,869.6217494089833,0.019736842105263164
438,872.4192277383768,0.019736842105263164
439,875.2167060677698,0.019736842105263164
440,878.0141843971633,0.019736842105263164
441,880.8116627265563,0.019736842105263164
442,883.6091410559497,0.019736842105263164
443,886.4066193853428,0.019736842105263164
444,889.2040977147362,0.019736842105263164
445,889.2040977147362,0.02631578947368418
446,892.0015760441293,0.02631578947368418
447,892.0015760441293,0.03289473684210531
448,894.7990543735223,0.03289473684210531
449,897.5965327029157,0.03289473684210531
450,897.5965327029157,0.046052631578947345
451,897.5965327029157,0.03947368421052633
452,900.3940110323088,0.046052631578947345
453,900.3940110323088,0.052631578947368474
454,903.1914893617022,0.052631578947368474
455,905.9889676910952,0.046052631578947345
456,905.9889676910952,0.052631578947368474
457,908.7864460204887,0.046052631578947345
458,911.5839243498817,0.046052631578947345
459,911.5839243498817,0.03947368421052633
460,914.3814026792752,0.03947368421052633
461,914.3814026792752,0.03289473684210531
462,917.1788810086682,0.03289473684210531
463,917.1788810086682,0.03947368421052633
464,919.9763593380617,0.03947368421052633
465,922.7738376674547,0.03947368421052633
466,922.7738376674547,0.046052631578947345
467,925.5713159968477,0.052631578947368474
468,925.5713159968477,0.046052631578947345
469,928.3687943262412,0.05921052631578949
470,928.3687943262412,0.052631578947368474
471,931.1662726556342,0.07236842105263153
472,931.1662726556342,0.05921052631578949
473,931.1662726556342,0.06578947368421051
