,wavenumbers,absorbance
0,452.797478329393,0.03947368421052633
1,455.5949566587865,0.03947368421052633
2,455.5949566587865,0.03289473684210531
3,458.3924349881795,0.03289473684210531
4,461.189913317573,0.03289473684210531
5,463.987391646966,0.03289473684210531
6,466.78486997635946,0.03289473684210531
7,469.5823483057525,0.02631578947368418
8,469.5823483057525,0.03289473684210531
9,472.37982663514595,0.02631578947368418
10,472.37982663514595,0.03289473684210531
11,475.17730496453896,0.02631578947368418
12,477.97478329393243,0.02631578947368418
13,480.77226162332545,0.02631578947368418
14,483.56973995271846,0.02631578947368418
15,486.36721828211193,0.02631578947368418
16,489.16469661150495,0.02631578947368418
17,491.9621749408984,0.02631578947368418
18,494.75965327029144,0.02631578947368418
19,497.5571315996849,0.02631578947368418
20,500.3546099290779,0.02631578947368418
21,503.1520882584714,0.02631578947368418
22,505.9495665878644,0.02631578947368418
23,508.7470449172579,0.02631578947368418
24,511.5445232466509,0.02631578947368418
25,514.3420015760439,0.02631578947368418
26,517.1394799054374,0.02631578947368418
27,519.9369582348304,0.02631578947368418
28,522.7344365642239,0.02631578947368418
29,525.5319148936169,0.02631578947368418
30,528.3293932230104,0.02631578947368418
31,531.1268715524034,0.02631578947368418
32,533.9243498817968,0.02631578947368418
33,536.7218282111899,0.02631578947368418
34,539.5193065405833,0.02631578947368418
35,542.3167848699763,0.02631578947368418
36,545.1142631993694,0.02631578947368418
37,547.9117415287628,0.02631578947368418
38,550.7092198581558,0.019736842105263164
39,550.7092198581558,0.02631578947368418
40,553.5066981875493,0.019736842105263164
41,556.3041765169423,0.019736842105263164
42,559.1016548463358,0.019736842105263164
43,561.8991331757288,0.019736842105263164
44,564.6966115051223,0.019736842105263164
45,567.4940898345153,0.019736842105263164
46,570.2915681639088,0.019736842105263164
47,573.0890464933018,0.019736842105263164
48,575.8865248226948,0.019736842105263164
49,578.6840031520883,0.019736842105263164
50,581.4814814814813,0.019736842105263164
51,584.2789598108748,0.019736842105263164
52,587.0764381402678,0.019736842105263164
53,589.8739164696613,0.019736842105263164
54,592.6713947990543,0.019736842105263164
55,595.4688731284477,0.019736842105263164
56,598.2663514578408,0.019736842105263164
57,601.0638297872342,0.019736842105263164
58,603.8613081166272,0.019736842105263164
59,606.6587864460207,0.019736842105263164
60,609.4562647754137,0.019736842105263164
61,612.2537431048067,0.019736842105263164
62,615.0512214342002,0.019736842105263164
63,617.8486997635932,0.019736842105263164
64,620.6461780929867,0.019736842105263164
65,623.4436564223797,0.019736842105263164
66,626.2411347517732,0.019736842105263164
67,629.0386130811662,0.019736842105263164
68,631.8360914105597,0.019736842105263164
69,634.6335697399527,0.019736842105263164
70,637.4310480693462,0.019736842105263164
71,640.2285263987392,0.019736842105263164
72,643.0260047281322,0.019736842105263164
73,645.8234830575257,0.019736842105263164
74,648.6209613869187,0.019736842105263164
75,651.4184397163122,0.019736842105263164
76,654.2159180457052,0.019736842105263164
77,657.0133963750986,0.019736842105263164
78,659.8108747044917,0.019736842105263164
79,662.6083530338851,0.019736842105263164
80,665.4058313632781,0.019736842105263164
81,668.2033096926716,0.019736842105263164
82,671.0007880220646,0.019736842105263164
83,673.7982663514576,0.019736842105263164
84,676.5957446808511,0.019736842105263164
85,679.3932230102441,0.019736842105263164
86,682.1907013396376,0.019736842105263164
87,682.1907013396376,0.02631578947368418
88,684.9881796690306,0.02631578947368418
89,687.7856579984241,0.03947368421052633
90,687.7856579984241,0.02631578947368418
91,687.7856579984241,0.03289473684210531
92,687.7856579984241,0.046052631578947345
93,690.5831363278171,0.046052631578947345
94,690.5831363278171,0.052631578947368474
95,690.5831363278171,0.07236842105263153
96,690.5831363278171,0.05921052631578949
97,690.5831363278171,0.06578947368421051
98,690.5831363278171,0.07894736842105265
99,693.3806146572106,0.07894736842105265
100,693.3806146572106,0.08552631578947367
101,693.3806146572106,0.09210526315789469
102,693.3806146572106,0.10526315789473684
103,693.3806146572106,0.09868421052631582
104,693.3806146572106,0.11184210526315785
105,693.3806146572106,0.13157894736842102
106,693.3806146572106,0.15131578947368418
107,693.3806146572106,0.13815789473684215
108,693.3806146572106,0.11842105263157898
109,693.3806146572106,0.16447368421052633
110,693.3806146572106,0.1578947368421053
111,693.3806146572106,0.14473684210526316
112,693.3806146572106,0.125
113,696.1780929866036,0.1578947368421053
114,696.1780929866036,0.16447368421052633
115,698.9755713159971,0.11842105263157898
116,698.9755713159971,0.1578947368421053
117,698.9755713159971,0.13157894736842102
118,698.9755713159971,0.125
119,698.9755713159971,0.13815789473684215
120,698.9755713159971,0.15131578947368418
121,698.9755713159971,0.10526315789473684
122,698.9755713159971,0.11184210526315785
123,698.9755713159971,0.14473684210526316
124,701.7730496453901,0.09210526315789469
125,701.7730496453901,0.09868421052631582
126,701.7730496453901,0.10526315789473684
127,701.7730496453901,0.08552631578947367
128,704.5705279747831,0.07894736842105265
129,704.5705279747831,0.08552631578947367
130,704.5705279747831,0.06578947368421051
131,704.5705279747831,0.07236842105263153
132,707.3680063041766,0.046052631578947345
133,707.3680063041766,0.06578947368421051
134,707.3680063041766,0.052631578947368474
135,707.3680063041766,0.05921052631578949
136,710.1654846335696,0.03947368421052633
137,710.1654846335696,0.046052631578947345
138,712.962962962963,0.03947368421052633
139,715.7604412923561,0.03947368421052633
140,718.5579196217495,0.03947368421052633
141,718.5579196217495,0.046052631578947345
142,721.3553979511425,0.046052631578947345
143,721.3553979511425,0.052631578947368474
144,724.152876280536,0.052631578947368474
145,726.950354609929,0.052631578947368474
146,729.7478329393225,0.052631578947368474
147,729.7478329393225,0.05921052631578949
148,732.5453112687155,0.06578947368421051
149,732.5453112687155,0.07236842105263153
150,732.5453112687155,0.05921052631578949
151,732.5453112687155,0.07894736842105265
152,735.3427895981085,0.09210526315789469
153,735.3427895981085,0.07894736842105265
154,735.3427895981085,0.08552631578947367
155,735.3427895981085,0.09868421052631582
156,738.140267927502,0.09868421052631582
157,738.140267927502,0.11184210526315785
158,738.140267927502,0.10526315789473684
159,738.140267927502,0.11842105263157898
160,740.937746256895,0.11842105263157898
161,743.7352245862885,0.125
162,743.7352245862885,0.11842105263157898
163,746.5327029156815,0.11842105263157898
164,749.330181245075,0.11184210526315785
165,749.330181245075,0.10526315789473684
166,749.330181245075,0.11842105263157898
167,752.127659574468,0.09868421052631582
168,752.127659574468,0.10526315789473684
169,754.9251379038615,0.09868421052631582
170,754.9251379038615,0.09210526315789469
171,754.9251379038615,0.08552631578947367
172,757.7226162332545,0.08552631578947367
173,757.7226162332545,0.07894736842105265
174,760.520094562648,0.07236842105263153
175,760.520094562648,0.07894736842105265
176,763.317572892041,0.06578947368421051
177,763.317572892041,0.07236842105263153
178,763.317572892041,0.05921052631578949
179,766.115051221434,0.05921052631578949
180,766.115051221434,0.052631578947368474
181,768.9125295508275,0.052631578947368474
182,771.7100078802205,0.052631578947368474
183,774.507486209614,0.06578947368421051
184,774.507486209614,0.052631578947368474
185,774.507486209614,0.05921052631578949
186,777.304964539007,0.06578947368421051
187,780.1024428684004,0.05921052631578949
188,780.1024428684004,0.06578947368421051
189,782.8999211977934,0.05921052631578949
190,782.8999211977934,0.052631578947368474
191,785.6973995271869,0.052631578947368474
192,788.4948778565799,0.046052631578947345
193,788.4948778565799,0.052631578947368474
194,791.2923561859734,0.046052631578947345
195,794.0898345153664,0.046052631578947345
196,796.8873128447594,0.046052631578947345
197,799.6847911741529,0.046052631578947345
198,799.6847911741529,0.052631578947368474
199,802.4822695035459,0.052631578947368474
200,805.2797478329394,0.052631578947368474
201,808.0772261623324,0.05921052631578949
202,808.0772261623324,0.052631578947368474
203,810.8747044917259,0.052631578947368474
204,810.8747044917259,0.05921052631578949
205,813.6721828211189,0.052631578947368474
206,816.4696611505124,0.046052631578947345
207,816.4696611505124,0.052631578947368474
208,819.2671394799054,0.03947368421052633
209,819.2671394799054,0.046052631578947345
210,822.0646178092989,0.03289473684210531
211,822.0646178092989,0.03947368421052633
212,824.8620961386919,0.03289473684210531
213,827.6595744680849,0.03289473684210531
214,830.4570527974784,0.03289473684210531
215,833.2545311268714,0.03289473684210531
216,836.0520094562648,0.03289473684210531
217,838.8494877856579,0.03289473684210531
218,841.6469661150513,0.03289473684210531
219,844.4444444444443,0.03289473684210531
220,847.2419227738378,0.03289473684210531
221,850.0394011032308,0.03289473684210531
222,852.8368794326243,0.03289473684210531
223,855.6343577620173,0.03289473684210531
224,855.6343577620173,0.03947368421052633
225,858.4318360914103,0.03947368421052633
226,858.4318360914103,0.03289473684210531
227,861.2293144208038,0.03289473684210531
228,864.0267927501968,0.03289473684210531
229,866.8242710795903,0.03289473684210531
230,866.8242710795903,0.03947368421052633
231,869.6217494089833,0.03947368421052633
232,872.4192277383768,0.046052631578947345
233,872.4192277383768,0.03947368421052633
234,875.2167060677698,0.046052631578947345
235,878.0141843971633,0.046052631578947345
236,880.8116627265563,0.046052631578947345
237,883.6091410559497,0.046052631578947345
238,886.4066193853428,0.052631578947368474
239,886.4066193853428,0.046052631578947345
240,889.2040977147362,0.052631578947368474
241,892.0015760441293,0.05921052631578949
242,892.0015760441293,0.052631578947368474
243,894.7990543735223,0.05921052631578949
244,897.5965327029157,0.05921052631578949
245,897.5965327029157,0.06578947368421051
246,897.5965327029157,0.07236842105263153
247,900.3940110323088,0.07894736842105265
248,900.3940110323088,0.07236842105263153
249,903.1914893617022,0.07894736842105265
250,905.9889676910952,0.08552631578947367
251,905.9889676910952,0.07894736842105265
252,908.7864460204887,0.08552631578947367
253,911.5839243498817,0.07894736842105265
254,911.5839243498817,0.08552631578947367
255,914.3814026792752,0.07236842105263153
256,914.3814026792752,0.07894736842105265
257,917.1788810086682,0.07236842105263153
258,917.1788810086682,0.06578947368421051
259,917.1788810086682,0.05921052631578949
260,919.9763593380617,0.05921052631578949
261,922.7738376674547,0.052631578947368474
262,922.7738376674547,0.05921052631578949
263,925.5713159968477,0.046052631578947345
264,925.5713159968477,0.052631578947368474
265,928.3687943262412,0.046052631578947345
266,931.1662726556342,0.046052631578947345
267,933.9637509850277,0.046052631578947345
268,936.7612293144207,0.046052631578947345
269,939.5587076438142,0.046052631578947345
270,942.3561859732072,0.046052631578947345
271,945.1536643026006,0.046052631578947345
272,947.9511426319937,0.03947368421052633
273,947.9511426319937,0.046052631578947345
274,950.7486209613871,0.03947368421052633
275,953.5460992907801,0.03947368421052633
276,956.3435776201732,0.03947368421052633
277,956.3435776201732,0.046052631578947345
278,959.1410559495666,0.046052631578947345
279,961.9385342789597,0.046052631578947345
280,964.7360126083531,0.046052631578947345
281,967.5334909377461,0.046052631578947345
282,970.3309692671396,0.046052631578947345
283,973.1284475965326,0.046052631578947345
284,975.9259259259261,0.03947368421052633
285,975.9259259259261,0.046052631578947345
286,978.7234042553191,0.03947368421052633
287,981.5208825847126,0.03947368421052633
288,984.3183609141056,0.03947368421052633
289,987.1158392434986,0.03947368421052633
290,989.9133175728921,0.03947368421052633
291,992.7107959022851,0.03947368421052633
292,995.5082742316786,0.03947368421052633
293,998.3057525610716,0.03947368421052633
294,998.3057525610716,0.046052631578947345
295,1001.103230890465,0.046052631578947345
296,1003.9007092198581,0.046052631578947345
297,1003.9007092198581,0.052631578947368474
298,1006.6981875492515,0.052631578947368474
299,1009.4956658786446,0.052631578947368474
300,1012.293144208038,0.052631578947368474
301,1015.090622537431,0.052631578947368474
302,1015.090622537431,0.05921052631578949
303,1017.8881008668241,0.05921052631578949
304,1017.8881008668241,0.06578947368421051
305,1020.6855791962175,0.06578947368421051
306,1020.6855791962175,0.07236842105263153
307,1023.4830575256105,0.07236842105263153
308,1026.280535855004,0.07236842105263153
309,1029.078014184397,0.06578947368421051
310,1029.078014184397,0.07236842105263153
311,1031.8754925137905,0.06578947368421051
312,1034.6729708431835,0.06578947368421051
313,1037.470449172577,0.05921052631578949
314,1037.470449172577,0.06578947368421051
315,1040.26792750197,0.06578947368421051
316,1040.26792750197,0.05921052631578949
317,1043.0654058313635,0.06578947368421051
318,1045.8628841607565,0.06578947368421051
319,1048.6603624901495,0.06578947368421051
320,1048.6603624901495,0.07236842105263153
321,1051.457840819543,0.07894736842105265
322,1051.457840819543,0.07236842105263153
323,1054.255319148936,0.09210526315789469
324,1054.255319148936,0.08552631578947367
325,1054.255319148936,0.07894736842105265
326,1057.0527974783295,0.09868421052631582
327,1057.0527974783295,0.09210526315789469
328,1059.8502758077225,0.09868421052631582
329,1059.8502758077225,0.125
330,1059.8502758077225,0.13157894736842102
331,1059.8502758077225,0.11184210526315785
332,1059.8502758077225,0.11842105263157898
333,1059.8502758077225,0.10526315789473684
334,1062.647754137116,0.15131578947368418
335,1062.647754137116,0.14473684210526316
336,1062.647754137116,0.13157894736842102
337,1062.647754137116,0.1578947368421053
338,1062.647754137116,0.13815789473684215
339,1065.445232466509,0.17763157894736847
340,1065.445232466509,0.1578947368421053
341,1065.445232466509,0.1907894736842105
342,1065.445232466509,0.1842105263157895
343,1065.445232466509,0.17105263157894735
344,1065.445232466509,0.16447368421052633
345,1068.2427107959024,0.1842105263157895
346,1068.2427107959024,0.1907894736842105
347,1071.0401891252955,0.17763157894736847
348,1071.0401891252955,0.16447368421052633
349,1071.0401891252955,0.17105263157894735
350,1071.0401891252955,0.1842105263157895
351,1071.0401891252955,0.1578947368421053
352,1073.837667454689,0.14473684210526316
353,1073.837667454689,0.15131578947368418
354,1073.837667454689,0.11184210526315785
355,1073.837667454689,0.11842105263157898
356,1073.837667454689,0.13157894736842102
357,1073.837667454689,0.125
358,1073.837667454689,0.10526315789473684
359,1073.837667454689,0.1578947368421053
360,1073.837667454689,0.13815789473684215
361,1076.635145784082,0.09210526315789469
362,1076.635145784082,0.09868421052631582
363,1076.635145784082,0.10526315789473684
364,1079.432624113475,0.07894736842105265
365,1079.432624113475,0.09210526315789469
366,1079.432624113475,0.07236842105263153
367,1079.432624113475,0.08552631578947367
368,1082.2301024428684,0.07236842105263153
369,1085.0275807722614,0.07236842105263153
370,1085.0275807722614,0.06578947368421051
371,1087.825059101655,0.06578947368421051
372,1090.622537431048,0.05921052631578949
373,1090.622537431048,0.06578947368421051
374,1093.4200157604414,0.05921052631578949
375,1096.2174940898344,0.05921052631578949
376,1099.014972419228,0.05921052631578949
377,1101.812450748621,0.05921052631578949
378,1104.6099290780144,0.05921052631578949
379,1107.4074074074074,0.05921052631578949
380,1110.2048857368004,0.05921052631578949
381,1113.0023640661939,0.05921052631578949
382,1115.799842395587,0.05921052631578949
383,1118.5973207249804,0.05921052631578949
384,1121.3947990543734,0.05921052631578949
385,1121.3947990543734,0.052631578947368474
386,1124.1922773837669,0.052631578947368474
387,1126.9897557131599,0.052631578947368474
388,1129.7872340425533,0.052631578947368474
389,1129.7872340425533,0.05921052631578949
390,1132.5847123719464,0.05921052631578949
391,1135.3821907013398,0.05921052631578949
392,1138.1796690307328,0.05921052631578949
393,1140.9771473601263,0.05921052631578949
394,1143.7746256895193,0.05921052631578949
395,1146.5721040189123,0.05921052631578949
396,1149.3695823483058,0.05921052631578949
397,1152.1670606776988,0.05921052631578949
398,1154.9645390070923,0.05921052631578949
399,1157.7620173364853,0.05921052631578949
400,1160.5594956658788,0.05921052631578949
401,1163.3569739952718,0.052631578947368474
402,1163.3569739952718,0.05921052631578949
403,1166.1544523246653,0.052631578947368474
404,1168.9519306540583,0.052631578947368474
405,1171.7494089834518,0.052631578947368474
406,1174.5468873128448,0.052631578947368474
407,1177.3443656422378,0.052631578947368474
408,1180.1418439716313,0.052631578947368474
409,1182.9393223010243,0.046052631578947345
410,1182.9393223010243,0.052631578947368474
411,1185.7368006304177,0.046052631578947345
412,1188.5342789598108,0.046052631578947345
413,1191.3317572892042,0.046052631578947345
414,1191.3317572892042,0.052631578947368474
415,1194.1292356185972,0.046052631578947345
416,1194.1292356185972,0.052631578947368474
417,1196.9267139479907,0.052631578947368474
418,1196.9267139479907,0.046052631578947345
419,1199.7241922773837,0.046052631578947345
420,1202.5216706067772,0.046052631578947345
421,1202.5216706067772,0.052631578947368474
422,1205.3191489361702,0.052631578947368474
423,1208.1166272655632,0.052631578947368474
424,1210.9141055949567,0.052631578947368474
425,1213.7115839243497,0.052631578947368474
426,1216.5090622537432,0.052631578947368474
427,1219.3065405831362,0.052631578947368474
428,1222.1040189125297,0.05921052631578949
429,1222.1040189125297,0.052631578947368474
430,1224.9014972419227,0.05921052631578949
431,1227.6989755713162,0.05921052631578949
432,1230.4964539007092,0.05921052631578949
433,1233.2939322301027,0.05921052631578949
434,1236.0914105594957,0.05921052631578949
435,1238.8888888888887,0.05921052631578949
436,1238.8888888888887,0.06578947368421051
437,1241.6863672182822,0.06578947368421051
438,1244.4838455476752,0.06578947368421051
439,1247.2813238770686,0.06578947368421051
440,1250.0788022064617,0.06578947368421051
441,1252.8762805358551,0.06578947368421051
442,1255.6737588652481,0.07236842105263153
443,1255.6737588652481,0.06578947368421051
444,1258.4712371946416,0.07236842105263153
445,1261.2687155240346,0.06578947368421051
446,1261.2687155240346,0.07236842105263153
447,1264.066193853428,0.06578947368421051
448,1264.066193853428,0.05921052631578949
449,1266.8636721828211,0.05921052631578949
450,1269.6611505122141,0.05921052631578949
451,1269.6611505122141,0.06578947368421051
452,1272.4586288416076,0.06578947368421051
453,1275.2561071710006,0.06578947368421051
454,1278.053585500394,0.06578947368421051
455,1280.851063829787,0.06578947368421051
456,1283.6485421591806,0.06578947368421051
457,1283.6485421591806,0.07236842105263153
458,1286.4460204885736,0.07236842105263153
459,1289.243498817967,0.07236842105263153
460,1292.04097714736,0.07236842105263153
461,1294.8384554767536,0.07236842105263153
462,1294.8384554767536,0.06578947368421051
