,wavenumbers,absorbance
0,452.797478329393,0.019736842105263164
1,455.5949566587865,0.019736842105263164
2,458.3924349881795,0.03947368421052633
3,458.3924349881795,0.019736842105263164
4,458.3924349881795,0.02631578947368418
5,458.3924349881795,0.03289473684210531
6,461.189913317573,0.03947368421052633
7,463.987391646966,0.03947368421052633
8,463.987391646966,0.046052631578947345
9,466.78486997635946,0.046052631578947345
10,469.5823483057525,0.046052631578947345
11,472.37982663514595,0.046052631578947345
12,475.17730496453896,0.03947368421052633
13,475.17730496453896,0.046052631578947345
14,477.97478329393243,0.03947368421052633
15,480.77226162332545,0.03947368421052633
16,483.56973995271846,0.03947368421052633
17,486.36721828211193,0.03947368421052633
18,489.16469661150495,0.03947368421052633
19,491.9621749408984,0.03947368421052633
20,494.75965327029144,0.03947368421052633
21,497.5571315996849,0.03947368421052633
22,500.3546099290779,0.03289473684210531
23,500.3546099290779,0.03947368421052633
24,503.1520882584714,0.03289473684210531
25,505.9495665878644,0.03289473684210531
26,508.7470449172579,0.03289473684210531
27,511.5445232466509,0.03289473684210531
28,514.3420015760439,0.03947368421052633
29,514.3420015760439,0.03289473684210531
30,517.1394799054374,0.03947368421052633
31,519.9369582348304,0.046052631578947345
32,519.9369582348304,0.03947368421052633
33,522.7344365642239,0.046052631578947345
34,525.5319148936169,0.046052631578947345
35,528.3293932230104,0.046052631578947345
36,528.3293932230104,0.052631578947368474
37,531.1268715524034,0.052631578947368474
38,533.9243498817968,0.052631578947368474
39,536.7218282111899,0.052631578947368474
40,539.5193065405833,0.052631578947368474
41,542.3167848699763,0.052631578947368474
42,545.1142631993694,0.052631578947368474
43,547.9117415287628,0.052631578947368474
44,550.7092198581558,0.052631578947368474
45,553.5066981875493,0.052631578947368474
46,556.3041765169423,0.052631578947368474
47,559.1016548463358,0.052631578947368474
48,561.8991331757288,0.052631578947368474
49,564.6966115051223,0.052631578947368474
50,567.4940898345153,0.052631578947368474
51,567.4940898345153,0.046052631578947345
52,570.2915681639088,0.046052631578947345
53,573.0890464933018,0.046052631578947345
54,575.8865248226948,0.046052631578947345
55,578.6840031520883,0.046052631578947345
56,581.4814814814813,0.03947368421052633
57,581.4814814814813,0.046052631578947345
58,584.2789598108748,0.03947368421052633
59,587.0764381402678,0.03289473684210531
60,587.0764381402678,0.03947368421052633
61,589.8739164696613,0.03289473684210531
62,592.6713947990543,0.03289473684210531
63,595.4688731284477,0.02631578947368418
64,595.4688731284477,0.03289473684210531
65,598.2663514578408,0.02631578947368418
66,598.2663514578408,0.03289473684210531
67,601.0638297872342,0.02631578947368418
68,601.0638297872342,0.03289473684210531
69,603.8613081166272,0.02631578947368418
70,603.8613081166272,0.03289473684210531
71,606.6587864460207,0.03289473684210531
72,606.6587864460207,0.03947368421052633
73,606.6587864460207,0.046052631578947345
74,606.6587864460207,0.02631578947368418
75,609.4562647754137,0.052631578947368474
76,609.4562647754137,0.05921052631578949
77,609.4562647754137,0.046052631578947345
78,612.2537431048067,0.05921052631578949
79,612.2537431048067,0.07236842105263153
80,612.2537431048067,0.06578947368421051
81,612.2537431048067,0.07894736842105265
82,612.2537431048067,0.08552631578947367
83,615.0512214342002,0.07894736842105265
84,615.0512214342002,0.08552631578947367
85,615.0512214342002,0.07236842105263153
86,617.8486997635932,0.06578947368421051
87,617.8486997635932,0.07236842105263153
88,620.6461780929867,0.05921052631578949
89,620.6461780929867,0.06578947368421051
90,620.6461780929867,0.052631578947368474
91,623.4436564223797,0.046052631578947345
92,623.4436564223797,0.052631578947368474
93,626.2411347517732,0.046052631578947345
94,626.2411347517732,0.03947368421052633
95,626.2411347517732,0.03289473684210531
96,629.0386130811662,0.03289473684210531
97,631.8360914105597,0.02631578947368418
98,631.8360914105597,0.03289473684210531
99,634.6335697399527,0.02631578947368418
100,634.6335697399527,0.03289473684210531
101,637.4310480693462,0.02631578947368418
102,640.2285263987392,0.02631578947368418
103,643.0260047281322,0.02631578947368418
104,645.8234830575257,0.03289473684210531
105,645.8234830575257,0.02631578947368418
106,648.6209613869187,0.03289473684210531
107,651.4184397163122,0.03947368421052633
108,651.4184397163122,0.03289473684210531
109,654.2159180457052,0.03947368421052633
110,654.2159180457052,0.046052631578947345
111,657.0133963750986,0.052631578947368474
112,657.0133963750986,0.046052631578947345
113,659.8108747044917,0.05921052631578949
114,659.8108747044917,0.052631578947368474
115,662.6083530338851,0.07236842105263153
116,662.6083530338851,0.06578947368421051
117,662.6083530338851,0.05921052631578949
118,662.6083530338851,0.07894736842105265
119,665.4058313632781,0.07894736842105265
120,665.4058313632781,0.08552631578947367
121,668.2033096926716,0.08552631578947367
122,668.2033096926716,0.09210526315789469
123,668.2033096926716,0.09868421052631582
124,668.2033096926716,0.10526315789473684
125,671.0007880220646,0.10526315789473684
126,671.0007880220646,0.11184210526315785
127,673.7982663514576,0.11184210526315785
128,673.7982663514576,0.11842105263157898
129,673.7982663514576,0.125
130,676.5957446808511,0.13157894736842102
131,676.5957446808511,0.125
132,679.3932230102441,0.13157894736842102
133,679.3932230102441,0.13815789473684215
134,682.1907013396376,0.14473684210526316
135,682.1907013396376,0.13815789473684215
136,682.1907013396376,0.15131578947368418
137,684.9881796690306,0.1578947368421053
138,684.9881796690306,0.15131578947368418
139,687.7856579984241,0.16447368421052633
140,687.7856579984241,0.17105263157894735
141,687.7856579984241,0.17763157894736847
142,687.7856579984241,0.23026315789473684
143,687.7856579984241,0.1578947368421053
144,687.7856579984241,0.21052631578947367
145,687.7856579984241,0.19736842105263153
146,687.7856579984241,0.2171052631578947
147,687.7856579984241,0.1907894736842105
148,687.7856579984241,0.22368421052631582
149,687.7856579984241,0.20394736842105265
150,687.7856579984241,0.1842105263157895
151,690.5831363278171,0.32894736842105265
152,690.5831363278171,0.3223684210526315
153,690.5831363278171,0.23026315789473684
154,690.5831363278171,0.35526315789473684
155,690.5831363278171,0.256578947368421
156,690.5831363278171,0.23684210526315785
157,690.5831363278171,0.2763157894736842
158,690.5831363278171,0.3157894736842105
159,690.5831363278171,0.3026315789473685
160,690.5831363278171,0.2828947368421053
161,690.5831363278171,0.3486842105263158
162,690.5831363278171,0.26315789473684215
163,690.5831363278171,0.3092105263157895
164,690.5831363278171,0.29605263157894735
165,690.5831363278171,0.26973684210526316
166,690.5831363278171,0.24342105263157898
167,690.5831363278171,0.3421052631578947
168,690.5831363278171,0.3355263157894737
169,690.5831363278171,0.2894736842105263
170,690.5831363278171,0.25
171,693.3806146572106,0.6578947368421053
172,693.3806146572106,0.7171052631578947
173,693.3806146572106,0.618421052631579
174,693.3806146572106,0.6710526315789473
175,693.3806146572106,0.6644736842105263
176,693.3806146572106,0.48684210526315785
177,693.3806146572106,0.7236842105263157
178,693.3806146572106,0.7105263157894737
179,693.3806146572106,0.4342105263157895
180,693.3806146572106,0.4407894736842105
181,693.3806146572106,0.625
182,693.3806146572106,0.4605263157894737
183,693.3806146572106,0.5263157894736843
184,693.3806146572106,0.6973684210526316
185,693.3806146572106,0.4671052631578947
186,693.3806146572106,0.6842105263157895
187,693.3806146572106,0.6447368421052632
188,693.3806146572106,0.4736842105263158
189,693.3806146572106,0.493421052631579
190,693.3806146572106,0.48026315789473684
191,693.3806146572106,0.5394736842105263
192,693.3806146572106,0.6776315789473684
193,693.3806146572106,0.5
194,693.3806146572106,0.6513157894736843
195,693.3806146572106,0.45394736842105265
196,693.3806146572106,0.7039473684210527
197,693.3806146572106,0.638157894736842
198,693.3806146572106,0.506578947368421
199,693.3806146572106,0.6907894736842105
200,693.3806146572106,0.5197368421052632
201,693.3806146572106,0.631578947368421
202,693.3806146572106,0.4473684210526315
203,693.3806146572106,0.5328947368421053
204,693.3806146572106,0.513157894736842
205,693.3806146572106,0.736842105263158
206,693.3806146572106,0.6052631578947368
207,693.3806146572106,0.7697368421052632
208,693.3806146572106,0.7763157894736842
209,693.3806146572106,0.7828947368421053
210,693.3806146572106,0.7894736842105263
211,693.3806146572106,0.4013157894736842
212,693.3806146572106,0.7960526315789473
213,693.3806146572106,0.611842105263158
214,693.3806146572106,0.39473684210526316
215,693.3806146572106,0.38815789473684215
216,693.3806146572106,0.381578947368421
217,693.3806146572106,0.375
218,693.3806146572106,0.368421052631579
219,693.3806146572106,0.5526315789473684
220,693.3806146572106,0.36184210526315785
221,693.3806146572106,0.35526315789473684
222,693.3806146572106,0.5986842105263157
223,693.3806146572106,0.5592105263157895
224,693.3806146572106,0.5921052631578947
225,693.3806146572106,0.5657894736842105
226,693.3806146572106,0.5723684210526316
227,693.3806146572106,0.5789473684210527
228,693.3806146572106,0.4078947368421053
229,693.3806146572106,0.5460526315789473
230,693.3806146572106,0.7631578947368421
231,693.3806146572106,0.5855263157894737
232,693.3806146572106,0.42105263157894735
233,693.3806146572106,0.743421052631579
234,693.3806146572106,0.756578947368421
235,693.3806146572106,0.4276315789473685
236,693.3806146572106,0.75
237,693.3806146572106,0.4144736842105263
238,693.3806146572106,0.7302631578947368
239,696.1780929866036,0.736842105263158
240,696.1780929866036,0.756578947368421
241,696.1780929866036,0.7960526315789473
242,696.1780929866036,0.7302631578947368
243,696.1780929866036,0.7894736842105263
244,696.1780929866036,0.7236842105263157
245,696.1780929866036,0.7631578947368421
246,696.1780929866036,0.75
247,696.1780929866036,0.7697368421052632
248,696.1780929866036,0.7763157894736842
249,696.1780929866036,0.7828947368421053
250,696.1780929866036,0.743421052631579
251,698.9755713159971,0.506578947368421
252,698.9755713159971,0.625
253,698.9755713159971,0.6644736842105263
254,698.9755713159971,0.35526315789473684
255,698.9755713159971,0.5986842105263157
256,698.9755713159971,0.3486842105263158
257,698.9755713159971,0.48684210526315785
258,698.9755713159971,0.4342105263157895
259,698.9755713159971,0.6578947368421053
260,698.9755713159971,0.3421052631578947
261,698.9755713159971,0.3355263157894737
262,698.9755713159971,0.32894736842105265
263,698.9755713159971,0.5328947368421053
264,698.9755713159971,0.3223684210526315
265,698.9755713159971,0.3157894736842105
266,698.9755713159971,0.5657894736842105
267,698.9755713159971,0.6513157894736843
268,698.9755713159971,0.3092105263157895
269,698.9755713159971,0.5723684210526316
270,698.9755713159971,0.5592105263157895
271,698.9755713159971,0.493421052631579
272,698.9755713159971,0.3026315789473685
273,698.9755713159971,0.6447368421052632
274,698.9755713159971,0.5
275,698.9755713159971,0.5921052631578947
276,698.9755713159971,0.5197368421052632
277,698.9755713159971,0.638157894736842
278,698.9755713159971,0.5789473684210527
279,698.9755713159971,0.5263157894736843
280,698.9755713159971,0.7236842105263157
281,698.9755713159971,0.513157894736842
282,698.9755713159971,0.5855263157894737
283,698.9755713159971,0.631578947368421
284,698.9755713159971,0.4276315789473685
285,698.9755713159971,0.5526315789473684
286,698.9755713159971,0.39473684210526316
287,698.9755713159971,0.36184210526315785
288,698.9755713159971,0.6842105263157895
289,698.9755713159971,0.4671052631578947
290,698.9755713159971,0.4144736842105263
291,698.9755713159971,0.4013157894736842
292,698.9755713159971,0.6907894736842105
293,698.9755713159971,0.4605263157894737
294,698.9755713159971,0.611842105263158
295,698.9755713159971,0.5394736842105263
296,698.9755713159971,0.618421052631579
297,698.9755713159971,0.6973684210526316
298,698.9755713159971,0.7105263157894737
299,698.9755713159971,0.45394736842105265
300,698.9755713159971,0.7039473684210527
301,698.9755713159971,0.4078947368421053
302,698.9755713159971,0.4473684210526315
303,698.9755713159971,0.4736842105263158
304,698.9755713159971,0.4407894736842105
305,698.9755713159971,0.5460526315789473
306,698.9755713159971,0.38815789473684215
307,698.9755713159971,0.48026315789473684
308,698.9755713159971,0.7171052631578947
309,698.9755713159971,0.381578947368421
310,698.9755713159971,0.368421052631579
311,698.9755713159971,0.6710526315789473
312,698.9755713159971,0.6776315789473684
313,698.9755713159971,0.42105263157894735
314,698.9755713159971,0.375
315,698.9755713159971,0.6052631578947368
316,701.7730496453901,0.26315789473684215
317,701.7730496453901,0.26973684210526316
318,701.7730496453901,0.2171052631578947
319,701.7730496453901,0.22368421052631582
320,701.7730496453901,0.20394736842105265
321,701.7730496453901,0.256578947368421
322,701.7730496453901,0.21052631578947367
323,701.7730496453901,0.3026315789473685
324,701.7730496453901,0.2763157894736842
325,701.7730496453901,0.24342105263157898
326,701.7730496453901,0.2828947368421053
327,701.7730496453901,0.25
328,701.7730496453901,0.23684210526315785
329,701.7730496453901,0.23026315789473684
330,701.7730496453901,0.2894736842105263
331,701.7730496453901,0.29605263157894735
332,704.5705279747831,0.1907894736842105
333,704.5705279747831,0.15131578947368418
334,704.5705279747831,0.20394736842105265
335,704.5705279747831,0.17763157894736847
336,704.5705279747831,0.17105263157894735
337,704.5705279747831,0.19736842105263153
338,704.5705279747831,0.1842105263157895
339,704.5705279747831,0.16447368421052633
340,704.5705279747831,0.1578947368421053
341,707.3680063041766,0.14473684210526316
342,707.3680063041766,0.11842105263157898
343,707.3680063041766,0.13815789473684215
344,707.3680063041766,0.15131578947368418
345,707.3680063041766,0.13157894736842102
346,707.3680063041766,0.125
347,710.1654846335696,0.11184210526315785
348,710.1654846335696,0.11842105263157898
349,712.962962962963,0.11184210526315785
350,712.962962962963,0.11842105263157898
351,715.7604412923561,0.11842105263157898
352,715.7604412923561,0.125
353,718.5579196217495,0.125
354,718.5579196217495,0.11842105263157898
355,721.3553979511425,0.125
356,721.3553979511425,0.11842105263157898
357,724.152876280536,0.125
358,724.152876280536,0.11842105263157898
359,726.950354609929,0.11842105263157898
360,729.7478329393225,0.11842105263157898
361,732.5453112687155,0.11842105263157898
362,735.3427895981085,0.11842105263157898
363,738.140267927502,0.11842105263157898
364,740.937746256895,0.125
365,740.937746256895,0.11842105263157898
366,743.7352245862885,0.15131578947368418
367,743.7352245862885,0.14473684210526316
368,743.7352245862885,0.13815789473684215
369,743.7352245862885,0.125
370,743.7352245862885,0.13157894736842102
371,746.5327029156815,0.15131578947368418
372,746.5327029156815,0.1578947368421053
373,746.5327029156815,0.16447368421052633
374,746.5327029156815,0.17105263157894735
375,749.330181245075,0.23026315789473684
376,749.330181245075,0.17105263157894735
377,749.330181245075,0.17763157894736847
378,749.330181245075,0.1842105263157895
379,749.330181245075,0.22368421052631582
380,749.330181245075,0.1907894736842105
381,749.330181245075,0.21052631578947367
382,749.330181245075,0.2171052631578947
383,749.330181245075,0.23684210526315785
384,749.330181245075,0.19736842105263153
385,749.330181245075,0.20394736842105265
386,752.127659574468,0.2763157894736842
387,752.127659574468,0.25
388,752.127659574468,0.24342105263157898
389,752.127659574468,0.256578947368421
390,752.127659574468,0.23684210526315785
391,752.127659574468,0.26973684210526316
392,752.127659574468,0.26315789473684215
393,754.9251379038615,0.2828947368421053
394,754.9251379038615,0.2894736842105263
395,754.9251379038615,0.2763157894736842
396,757.7226162332545,0.23684210526315785
397,757.7226162332545,0.25
398,757.7226162332545,0.26315789473684215
399,757.7226162332545,0.2763157894736842
400,757.7226162332545,0.256578947368421
401,757.7226162332545,0.26973684210526316
402,757.7226162332545,0.24342105263157898
403,760.520094562648,0.20394736842105265
404,760.520094562648,0.23684210526315785
405,760.520094562648,0.21052631578947367
406,760.520094562648,0.1907894736842105
407,760.520094562648,0.2171052631578947
408,760.520094562648,0.19736842105263153
409,760.520094562648,0.23026315789473684
410,760.520094562648,0.22368421052631582
411,763.317572892041,0.17105263157894735
412,763.317572892041,0.17763157894736847
413,763.317572892041,0.125
414,763.317572892041,0.14473684210526316
415,763.317572892041,0.1842105263157895
416,763.317572892041,0.16447368421052633
417,763.317572892041,0.1907894736842105
418,763.317572892041,0.13815789473684215
419,763.317572892041,0.1578947368421053
420,763.317572892041,0.13157894736842102
421,763.317572892041,0.15131578947368418
422,766.115051221434,0.10526315789473684
423,766.115051221434,0.11842105263157898
424,766.115051221434,0.11184210526315785
425,766.115051221434,0.125
426,768.9125295508275,0.08552631578947367
427,768.9125295508275,0.09868421052631582
428,768.9125295508275,0.07894736842105265
429,768.9125295508275,0.07236842105263153
430,768.9125295508275,0.09210526315789469
431,768.9125295508275,0.10526315789473684
432,771.7100078802205,0.07236842105263153
433,771.7100078802205,0.05921052631578949
434,771.7100078802205,0.06578947368421051
435,774.507486209614,0.05921052631578949
436,774.507486209614,0.052631578947368474
437,777.304964539007,0.052631578947368474
438,780.1024428684004,0.052631578947368474
439,780.1024428684004,0.03947368421052633
440,780.1024428684004,0.046052631578947345
441,782.8999211977934,0.03947368421052633
442,785.6973995271869,0.03947368421052633
443,788.4948778565799,0.03947368421052633
444,791.2923561859734,0.03947368421052633
445,794.0898345153664,0.03947368421052633
446,796.8873128447594,0.03947368421052633
447,799.6847911741529,0.03947368421052633
448,799.6847911741529,0.03289473684210531
449,802.4822695035459,0.03289473684210531
450,805.2797478329394,0.03289473684210531
451,808.0772261623324,0.03289473684210531
452,810.8747044917259,0.03289473684210531
453,813.6721828211189,0.03289473684210531
454,816.4696611505124,0.03289473684210531
455,819.2671394799054,0.03289473684210531
456,822.0646178092989,0.03289473684210531
457,822.0646178092989,0.02631578947368418
458,824.8620961386919,0.02631578947368418
459,827.6595744680849,0.02631578947368418
460,830.4570527974784,0.03289473684210531
461,830.4570527974784,0.02631578947368418
462,833.2545311268714,0.03289473684210531
463,833.2545311268714,0.03947368421052633
464,838.8494877856579,0.03947368421052633
465,841.6469661150513,0.03289473684210531
466,841.6469661150513,0.03947368421052633
467,844.4444444444443,0.03289473684210531
468,847.2419227738378,0.03289473684210531
469,847.2419227738378,0.03947368421052633
470,850.0394011032308,0.03947368421052633
471,852.8368794326243,0.03947368421052633
472,855.6343577620173,0.03947368421052633
473,858.4318360914103,0.03947368421052633
474,861.2293144208038,0.03947368421052633
475,861.2293144208038,0.046052631578947345
476,864.0267927501968,0.046052631578947345
477,866.8242710795903,0.046052631578947345
478,869.6217494089833,0.046052631578947345
