,wavenumbers,absorbance
0,452.797478329393,0.013157894736842146
1,455.5949566587865,0.013157894736842146
2,458.3924349881795,0.013157894736842146
3,461.189913317573,0.013157894736842146
4,463.987391646966,0.013157894736842146
5,466.78486997635946,0.013157894736842146
6,469.5823483057525,0.013157894736842146
7,472.37982663514595,0.013157894736842146
8,475.17730496453896,0.013157894736842146
9,477.97478329393243,0.013157894736842146
10,480.77226162332545,0.013157894736842146
11,483.56973995271846,0.013157894736842146
12,486.36721828211193,0.013157894736842146
13,489.16469661150495,0.013157894736842146
14,491.9621749408984,0.013157894736842146
15,494.75965327029144,0.019736842105263164
16,494.75965327029144,0.013157894736842146
17,497.5571315996849,0.019736842105263164
18,500.3546099290779,0.019736842105263164
19,503.1520882584714,0.019736842105263164
20,505.9495665878644,0.019736842105263164
21,508.7470449172579,0.019736842105263164
22,511.5445232466509,0.019736842105263164
23,514.3420015760439,0.019736842105263164
24,514.3420015760439,0.02631578947368418
25,517.1394799054374,0.02631578947368418
26,519.9369582348304,0.02631578947368418
27,522.7344365642239,0.02631578947368418
28,522.7344365642239,0.03289473684210531
29,525.5319148936169,0.03289473684210531
30,528.3293932230104,0.02631578947368418
31,528.3293932230104,0.03289473684210531
32,531.1268715524034,0.02631578947368418
33,533.9243498817968,0.02631578947368418
34,536.7218282111899,0.02631578947368418
35,536.7218282111899,0.019736842105263164
36,539.5193065405833,0.019736842105263164
37,542.3167848699763,0.019736842105263164
38,545.1142631993694,0.019736842105263164
39,545.1142631993694,0.02631578947368418
40,547.9117415287628,0.02631578947368418
41,550.7092198581558,0.02631578947368418
42,550.7092198581558,0.03289473684210531
43,553.5066981875493,0.03289473684210531
44,553.5066981875493,0.03947368421052633
45,556.3041765169423,0.046052631578947345
46,556.3041765169423,0.03947368421052633
47,559.1016548463358,0.046052631578947345
48,559.1016548463358,0.052631578947368474
49,561.8991331757288,0.052631578947368474
50,564.6966115051223,0.052631578947368474
51,564.6966115051223,0.05921052631578949
52,567.4940898345153,0.05921052631578949
53,570.2915681639088,0.07236842105263153
54,570.2915681639088,0.05921052631578949
55,570.2915681639088,0.06578947368421051
56,573.0890464933018,0.07236842105263153
57,573.0890464933018,0.07894736842105265
58,575.8865248226948,0.07894736842105265
59,575.8865248226948,0.09210526315789469
60,575.8865248226948,0.08552631578947367
61,578.6840031520883,0.09210526315789469
62,578.6840031520883,0.09868421052631582
63,581.4814814814813,0.11184210526315785
64,581.4814814814813,0.10526315789473684
65,581.4814814814813,0.09868421052631582
66,581.4814814814813,0.11842105263157898
67,584.2789598108748,0.125
68,584.2789598108748,0.11842105263157898
69,584.2789598108748,0.13157894736842102
70,587.0764381402678,0.13815789473684215
71,587.0764381402678,0.13157894736842102
72,589.8739164696613,0.13815789473684215
73,589.8739164696613,0.14473684210526316
74,589.8739164696613,0.15131578947368418
75,592.6713947990543,0.15131578947368418
76,592.6713947990543,0.1578947368421053
77,595.4688731284477,0.15131578947368418
78,595.4688731284477,0.1578947368421053
79,598.2663514578408,0.15131578947368418
80,598.2663514578408,0.14473684210526316
81,601.0638297872342,0.125
82,601.0638297872342,0.13815789473684215
83,601.0638297872342,0.13157894736842102
84,601.0638297872342,0.14473684210526316
85,603.8613081166272,0.125
86,603.8613081166272,0.11184210526315785
87,603.8613081166272,0.11842105263157898
88,606.6587864460207,0.11184210526315785
89,606.6587864460207,0.09868421052631582
90,606.6587864460207,0.10526315789473684
91,606.6587864460207,0.08552631578947367
92,606.6587864460207,0.09210526315789469
93,609.4562647754137,0.07894736842105265
94,609.4562647754137,0.08552631578947367
95,612.2537431048067,0.07236842105263153
96,612.2537431048067,0.07894736842105265
97,615.0512214342002,0.07236842105263153
98,617.8486997635932,0.07236842105263153
99,617.8486997635932,0.06578947368421051
100,620.6461780929867,0.06578947368421051
101,623.4436564223797,0.06578947368421051
102,626.2411347517732,0.05921052631578949
103,626.2411347517732,0.06578947368421051
104,629.0386130811662,0.05921052631578949
105,631.8360914105597,0.05921052631578949
106,634.6335697399527,0.052631578947368474
107,634.6335697399527,0.05921052631578949
108,637.4310480693462,0.052631578947368474
109,640.2285263987392,0.052631578947368474
110,640.2285263987392,0.046052631578947345
111,643.0260047281322,0.046052631578947345
112,643.0260047281322,0.03947368421052633
113,645.8234830575257,0.03289473684210531
114,645.8234830575257,0.03947368421052633
115,648.6209613869187,0.03289473684210531
116,651.4184397163122,0.03289473684210531
117,651.4184397163122,0.02631578947368418
118,654.2159180457052,0.02631578947368418
119,657.0133963750986,0.02631578947368418
120,659.8108747044917,0.02631578947368418
121,662.6083530338851,0.02631578947368418
122,665.4058313632781,0.02631578947368418
123,668.2033096926716,0.02631578947368418
124,668.2033096926716,0.019736842105263164
125,671.0007880220646,0.019736842105263164
126,673.7982663514576,0.019736842105263164
127,676.5957446808511,0.019736842105263164
128,679.3932230102441,0.019736842105263164
129,682.1907013396376,0.019736842105263164
130,684.9881796690306,0.019736842105263164
131,687.7856579984241,0.019736842105263164
132,690.5831363278171,0.019736842105263164
133,693.3806146572106,0.019736842105263164
134,693.3806146572106,0.02631578947368418
135,696.1780929866036,0.02631578947368418
136,698.9755713159971,0.02631578947368418
137,698.9755713159971,0.019736842105263164
138,701.7730496453901,0.019736842105263164
139,704.5705279747831,0.019736842105263164
140,707.3680063041766,0.019736842105263164
141,710.1654846335696,0.019736842105263164
142,712.962962962963,0.019736842105263164
143,715.7604412923561,0.019736842105263164
144,718.5579196217495,0.019736842105263164
145,721.3553979511425,0.019736842105263164
146,724.152876280536,0.019736842105263164
147,726.950354609929,0.019736842105263164
148,729.7478329393225,0.019736842105263164
149,732.5453112687155,0.019736842105263164
150,735.3427895981085,0.019736842105263164
151,738.140267927502,0.02631578947368418
152,738.140267927502,0.019736842105263164
153,740.937746256895,0.02631578947368418
154,740.937746256895,0.03289473684210531
155,743.7352245862885,0.046052631578947345
156,743.7352245862885,0.03947368421052633
157,743.7352245862885,0.03289473684210531
158,746.5327029156815,0.052631578947368474
159,746.5327029156815,0.05921052631578949
160,746.5327029156815,0.046052631578947345
161,749.330181245075,0.09210526315789469
162,749.330181245075,0.08552631578947367
163,749.330181245075,0.05921052631578949
164,749.330181245075,0.06578947368421051
165,749.330181245075,0.07236842105263153
166,749.330181245075,0.07894736842105265
167,752.127659574468,0.10526315789473684
168,752.127659574468,0.09868421052631582
169,752.127659574468,0.09210526315789469
170,754.9251379038615,0.11842105263157898
171,754.9251379038615,0.11184210526315785
172,754.9251379038615,0.13157894736842102
173,754.9251379038615,0.125
174,754.9251379038615,0.10526315789473684
175,757.7226162332545,0.13157894736842102
176,760.520094562648,0.13157894736842102
177,760.520094562648,0.125
178,763.317572892041,0.125
179,763.317572892041,0.10526315789473684
180,763.317572892041,0.11842105263157898
181,763.317572892041,0.11184210526315785
182,766.115051221434,0.10526315789473684
183,766.115051221434,0.09868421052631582
184,768.9125295508275,0.09868421052631582
185,771.7100078802205,0.09868421052631582
186,774.507486209614,0.09868421052631582
187,774.507486209614,0.10526315789473684
188,774.507486209614,0.11184210526315785
189,777.304964539007,0.11184210526315785
190,777.304964539007,0.11842105263157898
191,780.1024428684004,0.11842105263157898
192,780.1024428684004,0.125
193,782.8999211977934,0.125
194,785.6973995271869,0.13157894736842102
195,785.6973995271869,0.125
196,791.2923561859734,0.13157894736842102
197,791.2923561859734,0.13815789473684215
198,794.0898345153664,0.15131578947368418
199,794.0898345153664,0.13815789473684215
200,794.0898345153664,0.14473684210526316
201,796.8873128447594,0.16447368421052633
202,796.8873128447594,0.15131578947368418
203,796.8873128447594,0.1578947368421053
204,799.6847911741529,0.17105263157894735
205,799.6847911741529,0.1907894736842105
206,799.6847911741529,0.16447368421052633
207,799.6847911741529,0.1842105263157895
208,799.6847911741529,0.17763157894736847
209,799.6847911741529,0.19736842105263153
210,802.4822695035459,0.2171052631578947
211,802.4822695035459,0.21052631578947367
212,802.4822695035459,0.19736842105263153
213,802.4822695035459,0.20394736842105265
214,805.2797478329394,0.24342105263157898
215,805.2797478329394,0.25
216,805.2797478329394,0.2171052631578947
217,805.2797478329394,0.22368421052631582
218,805.2797478329394,0.23026315789473684
219,805.2797478329394,0.23684210526315785
220,805.2797478329394,0.256578947368421
221,808.0772261623324,0.2763157894736842
222,808.0772261623324,0.256578947368421
223,808.0772261623324,0.26973684210526316
224,808.0772261623324,0.26315789473684215
225,810.8747044917259,0.2828947368421053
226,810.8747044917259,0.29605263157894735
227,810.8747044917259,0.2894736842105263
228,810.8747044917259,0.2763157894736842
229,813.6721828211189,0.29605263157894735
230,816.4696611505124,0.29605263157894735
231,816.4696611505124,0.2894736842105263
232,816.4696611505124,0.2828947368421053
233,819.2671394799054,0.2828947368421053
234,819.2671394799054,0.2763157894736842
235,819.2671394799054,0.26973684210526316
236,819.2671394799054,0.26315789473684215
237,819.2671394799054,0.256578947368421
238,819.2671394799054,0.25
239,822.0646178092989,0.25
240,822.0646178092989,0.24342105263157898
241,822.0646178092989,0.23684210526315785
242,824.8620961386919,0.23684210526315785
243,824.8620961386919,0.22368421052631582
244,824.8620961386919,0.2171052631578947
245,824.8620961386919,0.23026315789473684
246,827.6595744680849,0.21052631578947367
247,827.6595744680849,0.2171052631578947
248,830.4570527974784,0.21052631578947367
249,830.4570527974784,0.20394736842105265
250,833.2545311268714,0.20394736842105265
251,836.0520094562648,0.20394736842105265
252,838.8494877856579,0.20394736842105265
253,841.6469661150513,0.1842105263157895
254,841.6469661150513,0.1907894736842105
255,841.6469661150513,0.19736842105263153
256,841.6469661150513,0.20394736842105265
257,844.4444444444443,0.17763157894736847
258,844.4444444444443,0.1842105263157895
259,847.2419227738378,0.17763157894736847
260,847.2419227738378,0.16447368421052633
261,847.2419227738378,0.17105263157894735
262,850.0394011032308,0.16447368421052633
263,850.0394011032308,0.14473684210526316
264,850.0394011032308,0.15131578947368418
265,850.0394011032308,0.1578947368421053
266,852.8368794326243,0.14473684210526316
267,852.8368794326243,0.13157894736842102
268,852.8368794326243,0.13815789473684215
269,855.6343577620173,0.11842105263157898
270,855.6343577620173,0.13157894736842102
271,855.6343577620173,0.11184210526315785
272,855.6343577620173,0.125
273,858.4318360914103,0.11184210526315785
274,858.4318360914103,0.10526315789473684
275,861.2293144208038,0.10526315789473684
276,861.2293144208038,0.09210526315789469
277,861.2293144208038,0.09868421052631582
278,864.0267927501968,0.09210526315789469
279,864.0267927501968,0.08552631578947367
280,866.8242710795903,0.07236842105263153
281,866.8242710795903,0.08552631578947367
282,866.8242710795903,0.07894736842105265
283,866.8242710795903,0.06578947368421051
284,869.6217494089833,0.06578947368421051
285,869.6217494089833,0.05921052631578949
286,872.4192277383768,0.046052631578947345
287,872.4192277383768,0.052631578947368474
288,872.4192277383768,0.05921052631578949
289,875.2167060677698,0.03947368421052633
290,875.2167060677698,0.046052631578947345
291,878.0141843971633,0.03947368421052633
292,878.0141843971633,0.03289473684210531
293,880.8116627265563,0.03289473684210531
294,883.6091410559497,0.03289473684210531
295,886.4066193853428,0.03289473684210531
296,889.2040977147362,0.03289473684210531
297,892.0015760441293,0.03289473684210531
298,894.7990543735223,0.03289473684210531
299,897.5965327029157,0.03289473684210531
300,897.5965327029157,0.03947368421052633
301,900.3940110323088,0.03947368421052633
302,903.1914893617022,0.046052631578947345
303,903.1914893617022,0.03947368421052633
304,905.9889676910952,0.046052631578947345
305,905.9889676910952,0.052631578947368474
306,905.9889676910952,0.05921052631578949
307,908.7864460204887,0.05921052631578949
308,908.7864460204887,0.06578947368421051
309,911.5839243498817,0.05921052631578949
310,911.5839243498817,0.06578947368421051
311,914.3814026792752,0.05921052631578949
312,914.3814026792752,0.052631578947368474
313,917.1788810086682,0.052631578947368474
314,917.1788810086682,0.046052631578947345
315,917.1788810086682,0.03947368421052633
316,919.9763593380617,0.03947368421052633
317,922.7738376674547,0.03947368421052633
318,925.5713159968477,0.03947368421052633
319,928.3687943262412,0.03947368421052633
320,931.1662726556342,0.03947368421052633
321,933.9637509850277,0.03947368421052633
322,936.7612293144207,0.046052631578947345
323,936.7612293144207,0.03947368421052633
324,939.5587076438142,0.046052631578947345
325,942.3561859732072,0.046052631578947345
326,945.1536643026006,0.046052631578947345
327,947.9511426319937,0.046052631578947345
328,950.7486209613871,0.046052631578947345
329,953.5460992907801,0.046052631578947345
330,956.3435776201732,0.046052631578947345
331,959.1410559495666,0.046052631578947345
332,961.9385342789597,0.046052631578947345
333,964.7360126083531,0.046052631578947345
334,967.5334909377461,0.046052631578947345
335,967.5334909377461,0.052631578947368474
336,970.3309692671396,0.05921052631578949
337,970.3309692671396,0.052631578947368474
338,973.1284475965326,0.05921052631578949
339,973.1284475965326,0.06578947368421051
340,975.9259259259261,0.06578947368421051
341,975.9259259259261,0.07236842105263153
342,978.7234042553191,0.08552631578947367
343,978.7234042553191,0.09210526315789469
344,978.7234042553191,0.07894736842105265
345,978.7234042553191,0.07236842105263153
346,981.5208825847126,0.09210526315789469
347,981.5208825847126,0.09868421052631582
348,981.5208825847126,0.10526315789473684
349,981.5208825847126,0.11184210526315785
350,984.3183609141056,0.13157894736842102
351,984.3183609141056,0.11842105263157898
352,984.3183609141056,0.125
353,984.3183609141056,0.11184210526315785
354,987.1158392434986,0.14473684210526316
355,987.1158392434986,0.13815789473684215
356,987.1158392434986,0.1578947368421053
357,987.1158392434986,0.1907894736842105
358,987.1158392434986,0.17763157894736847
359,987.1158392434986,0.16447368421052633
360,987.1158392434986,0.19736842105263153
361,987.1158392434986,0.17105263157894735
362,987.1158392434986,0.13157894736842102
363,987.1158392434986,0.1842105263157895
364,987.1158392434986,0.15131578947368418
365,989.9133175728921,0.2171052631578947
366,989.9133175728921,0.25
367,989.9133175728921,0.19736842105263153
368,989.9133175728921,0.24342105263157898
369,989.9133175728921,0.23026315789473684
370,989.9133175728921,0.22368421052631582
371,989.9133175728921,0.256578947368421
372,989.9133175728921,0.21052631578947367
373,989.9133175728921,0.23684210526315785
374,989.9133175728921,0.20394736842105265
375,992.7107959022851,0.36184210526315785
376,992.7107959022851,0.26973684210526316
377,992.7107959022851,0.3026315789473685
378,992.7107959022851,0.35526315789473684
379,992.7107959022851,0.381578947368421
380,992.7107959022851,0.2763157894736842
381,992.7107959022851,0.4013157894736842
382,992.7107959022851,0.26315789473684215
383,992.7107959022851,0.3223684210526315
384,992.7107959022851,0.375
385,992.7107959022851,0.3486842105263158
386,992.7107959022851,0.39473684210526316
387,992.7107959022851,0.2894736842105263
388,992.7107959022851,0.256578947368421
389,992.7107959022851,0.3092105263157895
390,992.7107959022851,0.32894736842105265
391,992.7107959022851,0.38815789473684215
392,992.7107959022851,0.2828947368421053
393,992.7107959022851,0.29605263157894735
394,992.7107959022851,0.3355263157894737
395,992.7107959022851,0.3421052631578947
396,992.7107959022851,0.368421052631579
397,992.7107959022851,0.3157894736842105
398,995.5082742316786,0.4407894736842105
399,995.5082742316786,0.4342105263157895
400,995.5082742316786,0.4276315789473685
401,995.5082742316786,0.42105263157894735
402,995.5082742316786,0.4473684210526315
403,995.5082742316786,0.4013157894736842
404,995.5082742316786,0.4078947368421053
405,995.5082742316786,0.4144736842105263
406,998.3057525610716,0.4078947368421053
407,998.3057525610716,0.4013157894736842
408,998.3057525610716,0.381578947368421
409,998.3057525610716,0.42105263157894735
410,998.3057525610716,0.39473684210526316
411,998.3057525610716,0.375
412,998.3057525610716,0.4276315789473685
413,998.3057525610716,0.4407894736842105
414,998.3057525610716,0.4473684210526315
415,998.3057525610716,0.38815789473684215
416,998.3057525610716,0.4144736842105263
417,998.3057525610716,0.4342105263157895
418,1001.103230890465,0.375
419,1001.103230890465,0.368421052631579
420,1001.103230890465,0.35526315789473684
421,1001.103230890465,0.3092105263157895
422,1001.103230890465,0.36184210526315785
423,1001.103230890465,0.3157894736842105
424,1001.103230890465,0.3223684210526315
425,1001.103230890465,0.32894736842105265
426,1001.103230890465,0.3486842105263158
427,1001.103230890465,0.3421052631578947
428,1001.103230890465,0.3355263157894737
429,1003.9007092198581,0.23026315789473684
430,1003.9007092198581,0.29605263157894735
431,1003.9007092198581,0.23684210526315785
432,1003.9007092198581,0.3092105263157895
433,1003.9007092198581,0.2894736842105263
434,1003.9007092198581,0.2828947368421053
435,1003.9007092198581,0.3026315789473685
436,1003.9007092198581,0.26973684210526316
437,1003.9007092198581,0.22368421052631582
438,1003.9007092198581,0.25
439,1003.9007092198581,0.256578947368421
440,1003.9007092198581,0.24342105263157898
441,1003.9007092198581,0.26315789473684215
442,1003.9007092198581,0.2763157894736842
443,1006.6981875492515,0.19736842105263153
444,1006.6981875492515,0.21052631578947367
445,1006.6981875492515,0.20394736842105265
446,1006.6981875492515,0.2171052631578947
447,1006.6981875492515,0.22368421052631582
448,1009.4956658786446,0.1578947368421053
449,1009.4956658786446,0.14473684210526316
450,1009.4956658786446,0.17105263157894735
451,1009.4956658786446,0.16447368421052633
452,1009.4956658786446,0.15131578947368418
453,1009.4956658786446,0.1907894736842105
454,1009.4956658786446,0.17763157894736847
455,1009.4956658786446,0.19736842105263153
456,1009.4956658786446,0.1842105263157895
457,1009.4956658786446,0.13815789473684215
458,1012.293144208038,0.125
459,1012.293144208038,0.11842105263157898
460,1012.293144208038,0.13157894736842102
461,1012.293144208038,0.13815789473684215
462,1012.293144208038,0.11184210526315785
463,1015.090622537431,0.11184210526315785
464,1015.090622537431,0.09868421052631582
465,1015.090622537431,0.10526315789473684
466,1015.090622537431,0.09210526315789469
467,1017.8881008668241,0.09210526315789469
468,1017.8881008668241,0.08552631578947367
469,1017.8881008668241,0.07894736842105265
470,1017.8881008668241,0.07236842105263153
471,1020.6855791962175,0.07236842105263153
472,1020.6855791962175,0.06578947368421051
