,wavenumbers,absorbance
0,452.797478329393,0.02631578947368418
1,455.5949566587865,0.02631578947368418
2,458.3924349881795,0.02631578947368418
3,458.3924349881795,0.03289473684210531
4,461.189913317573,0.02631578947368418
5,463.987391646966,0.02631578947368418
6,466.78486997635946,0.02631578947368418
7,469.5823483057525,0.02631578947368418
8,472.37982663514595,0.02631578947368418
9,475.17730496453896,0.02631578947368418
10,477.97478329393243,0.02631578947368418
11,480.77226162332545,0.02631578947368418
12,480.77226162332545,0.019736842105263164
13,483.56973995271846,0.019736842105263164
14,486.36721828211193,0.019736842105263164
15,489.16469661150495,0.019736842105263164
16,491.9621749408984,0.019736842105263164
17,494.75965327029144,0.019736842105263164
18,497.5571315996849,0.019736842105263164
19,500.3546099290779,0.019736842105263164
20,503.1520882584714,0.019736842105263164
21,505.9495665878644,0.019736842105263164
22,508.7470449172579,0.019736842105263164
23,511.5445232466509,0.019736842105263164
24,514.3420015760439,0.019736842105263164
25,517.1394799054374,0.019736842105263164
26,519.9369582348304,0.019736842105263164
27,522.7344365642239,0.019736842105263164
28,525.5319148936169,0.019736842105263164
29,528.3293932230104,0.019736842105263164
30,531.1268715524034,0.019736842105263164
31,533.9243498817968,0.019736842105263164
32,536.7218282111899,0.019736842105263164
33,539.5193065405833,0.019736842105263164
34,542.3167848699763,0.019736842105263164
35,545.1142631993694,0.019736842105263164
36,547.9117415287628,0.019736842105263164
37,550.7092198581558,0.019736842105263164
38,553.5066981875493,0.019736842105263164
39,556.3041765169423,0.019736842105263164
40,559.1016548463358,0.019736842105263164
41,561.8991331757288,0.019736842105263164
42,564.6966115051223,0.019736842105263164
43,567.4940898345153,0.019736842105263164
44,570.2915681639088,0.019736842105263164
45,573.0890464933018,0.019736842105263164
46,575.8865248226948,0.019736842105263164
47,578.6840031520883,0.019736842105263164
48,581.4814814814813,0.019736842105263164
49,584.2789598108748,0.019736842105263164
50,587.0764381402678,0.019736842105263164
51,589.8739164696613,0.019736842105263164
52,592.6713947990543,0.019736842105263164
53,595.4688731284477,0.019736842105263164
54,598.2663514578408,0.019736842105263164
55,601.0638297872342,0.019736842105263164
56,603.8613081166272,0.019736842105263164
57,606.6587864460207,0.019736842105263164
58,609.4562647754137,0.019736842105263164
59,612.2537431048067,0.019736842105263164
60,615.0512214342002,0.019736842105263164
61,617.8486997635932,0.019736842105263164
62,620.6461780929867,0.019736842105263164
63,623.4436564223797,0.019736842105263164
64,626.2411347517732,0.019736842105263164
65,629.0386130811662,0.019736842105263164
66,631.8360914105597,0.019736842105263164
67,634.6335697399527,0.019736842105263164
68,637.4310480693462,0.019736842105263164
69,640.2285263987392,0.019736842105263164
70,643.0260047281322,0.019736842105263164
71,645.8234830575257,0.019736842105263164
72,648.6209613869187,0.019736842105263164
73,651.4184397163122,0.019736842105263164
74,654.2159180457052,0.019736842105263164
75,657.0133963750986,0.019736842105263164
76,659.8108747044917,0.019736842105263164
77,662.6083530338851,0.019736842105263164
78,665.4058313632781,0.019736842105263164
79,668.2033096926716,0.019736842105263164
80,671.0007880220646,0.019736842105263164
81,673.7982663514576,0.019736842105263164
82,676.5957446808511,0.019736842105263164
83,679.3932230102441,0.019736842105263164
84,679.3932230102441,0.02631578947368418
85,684.9881796690306,0.02631578947368418
86,687.7856579984241,0.02631578947368418
87,690.5831363278171,0.02631578947368418
88,693.3806146572106,0.03289473684210531
89,693.3806146572106,0.02631578947368418
90,696.1780929866036,0.03289473684210531
91,698.9755713159971,0.03289473684210531
92,698.9755713159971,0.03947368421052633
93,701.7730496453901,0.046052631578947345
94,701.7730496453901,0.03947368421052633
95,704.5705279747831,0.052631578947368474
96,704.5705279747831,0.046052631578947345
97,707.3680063041766,0.07236842105263153
98,707.3680063041766,0.052631578947368474
99,707.3680063041766,0.05921052631578949
100,707.3680063041766,0.06578947368421051
101,707.3680063041766,0.07894736842105265
102,710.1654846335696,0.07894736842105265
103,710.1654846335696,0.09210526315789469
104,710.1654846335696,0.09868421052631582
105,710.1654846335696,0.10526315789473684
106,710.1654846335696,0.08552631578947367
107,712.962962962963,0.20394736842105265
108,712.962962962963,0.11842105263157898
109,712.962962962963,0.15131578947368418
110,712.962962962963,0.2171052631578947
111,712.962962962963,0.21052631578947367
112,712.962962962963,0.11184210526315785
113,712.962962962963,0.22368421052631582
114,712.962962962963,0.10526315789473684
115,712.962962962963,0.1907894736842105
116,712.962962962963,0.14473684210526316
117,712.962962962963,0.13815789473684215
118,712.962962962963,0.19736842105263153
119,712.962962962963,0.17105263157894735
120,712.962962962963,0.1578947368421053
121,712.962962962963,0.17763157894736847
122,712.962962962963,0.13157894736842102
123,712.962962962963,0.16447368421052633
124,712.962962962963,0.125
125,712.962962962963,0.1842105263157895
126,715.7604412923561,0.23684210526315785
127,715.7604412923561,0.23026315789473684
128,715.7604412923561,0.22368421052631582
129,718.5579196217495,0.19736842105263153
130,718.5579196217495,0.20394736842105265
131,718.5579196217495,0.21052631578947367
132,718.5579196217495,0.14473684210526316
133,718.5579196217495,0.23026315789473684
134,718.5579196217495,0.2171052631578947
135,718.5579196217495,0.13815789473684215
136,718.5579196217495,0.1578947368421053
137,718.5579196217495,0.17105263157894735
138,718.5579196217495,0.1842105263157895
139,718.5579196217495,0.23684210526315785
140,718.5579196217495,0.16447368421052633
141,718.5579196217495,0.22368421052631582
142,718.5579196217495,0.1907894736842105
143,718.5579196217495,0.15131578947368418
144,718.5579196217495,0.17763157894736847
145,721.3553979511425,0.125
146,721.3553979511425,0.13815789473684215
147,721.3553979511425,0.13157894736842102
148,724.152876280536,0.13815789473684215
149,724.152876280536,0.1578947368421053
150,724.152876280536,0.13157894736842102
151,724.152876280536,0.16447368421052633
152,724.152876280536,0.15131578947368418
153,724.152876280536,0.14473684210526316
154,724.152876280536,0.125
155,726.950354609929,0.11184210526315785
156,726.950354609929,0.15131578947368418
157,726.950354609929,0.11842105263157898
158,726.950354609929,0.14473684210526316
159,726.950354609929,0.1578947368421053
160,726.950354609929,0.13815789473684215
161,726.950354609929,0.16447368421052633
162,726.950354609929,0.13157894736842102
163,726.950354609929,0.125
164,729.7478329393225,0.09210526315789469
165,729.7478329393225,0.09868421052631582
166,729.7478329393225,0.07236842105263153
167,729.7478329393225,0.11184210526315785
168,729.7478329393225,0.08552631578947367
169,729.7478329393225,0.10526315789473684
170,729.7478329393225,0.07894736842105265
171,729.7478329393225,0.06578947368421051
172,732.5453112687155,0.05921052631578949
173,732.5453112687155,0.06578947368421051
174,732.5453112687155,0.052631578947368474
175,732.5453112687155,0.046052631578947345
176,732.5453112687155,0.03947368421052633
177,735.3427895981085,0.03947368421052633
178,735.3427895981085,0.03289473684210531
179,738.140267927502,0.03289473684210531
180,740.937746256895,0.02631578947368418
181,740.937746256895,0.03289473684210531
182,743.7352245862885,0.02631578947368418
183,746.5327029156815,0.02631578947368418
184,749.330181245075,0.02631578947368418
185,752.127659574468,0.02631578947368418
186,754.9251379038615,0.02631578947368418
187,757.7226162332545,0.02631578947368418
188,760.520094562648,0.02631578947368418
189,763.317572892041,0.02631578947368418
190,766.115051221434,0.02631578947368418
191,768.9125295508275,0.02631578947368418
192,771.7100078802205,0.02631578947368418
193,774.507486209614,0.02631578947368418
194,774.507486209614,0.019736842105263164
195,777.304964539007,0.019736842105263164
196,780.1024428684004,0.019736842105263164
197,782.8999211977934,0.019736842105263164
198,785.6973995271869,0.019736842105263164
199,788.4948778565799,0.019736842105263164
200,791.2923561859734,0.019736842105263164
201,794.0898345153664,0.019736842105263164
202,796.8873128447594,0.019736842105263164
203,799.6847911741529,0.019736842105263164
204,802.4822695035459,0.019736842105263164
205,805.2797478329394,0.019736842105263164
206,808.0772261623324,0.019736842105263164
207,810.8747044917259,0.019736842105263164
208,813.6721828211189,0.019736842105263164
209,816.4696611505124,0.019736842105263164
210,819.2671394799054,0.019736842105263164
211,822.0646178092989,0.019736842105263164
212,824.8620961386919,0.019736842105263164
213,827.6595744680849,0.019736842105263164
214,830.4570527974784,0.019736842105263164
215,833.2545311268714,0.019736842105263164
216,836.0520094562648,0.019736842105263164
217,838.8494877856579,0.019736842105263164
218,841.6469661150513,0.019736842105263164
219,844.4444444444443,0.019736842105263164
220,847.2419227738378,0.019736842105263164
221,850.0394011032308,0.019736842105263164
222,852.8368794326243,0.019736842105263164
223,855.6343577620173,0.019736842105263164
224,858.4318360914103,0.019736842105263164
225,861.2293144208038,0.019736842105263164
226,864.0267927501968,0.019736842105263164
227,866.8242710795903,0.019736842105263164
228,869.6217494089833,0.019736842105263164
229,872.4192277383768,0.019736842105263164
230,875.2167060677698,0.019736842105263164
231,878.0141843971633,0.019736842105263164
232,880.8116627265563,0.019736842105263164
233,880.8116627265563,0.02631578947368418
234,883.6091410559497,0.02631578947368418
235,886.4066193853428,0.02631578947368418
236,889.2040977147362,0.019736842105263164
237,889.2040977147362,0.02631578947368418
238,892.0015760441293,0.019736842105263164
239,894.7990543735223,0.019736842105263164
240,897.5965327029157,0.019736842105263164
241,900.3940110323088,0.019736842105263164
242,903.1914893617022,0.019736842105263164
243,905.9889676910952,0.019736842105263164
244,908.7864460204887,0.019736842105263164
245,911.5839243498817,0.019736842105263164
246,914.3814026792752,0.019736842105263164
247,917.1788810086682,0.019736842105263164
248,919.9763593380617,0.019736842105263164
249,922.7738376674547,0.019736842105263164
250,925.5713159968477,0.019736842105263164
251,928.3687943262412,0.019736842105263164
252,931.1662726556342,0.019736842105263164
253,933.9637509850277,0.019736842105263164
254,936.7612293144207,0.019736842105263164
255,939.5587076438142,0.019736842105263164
256,942.3561859732072,0.019736842105263164
257,945.1536643026006,0.019736842105263164
258,947.9511426319937,0.019736842105263164
259,950.7486209613871,0.019736842105263164
260,953.5460992907801,0.019736842105263164
261,956.3435776201732,0.019736842105263164
262,959.1410559495666,0.019736842105263164
263,961.9385342789597,0.019736842105263164
264,964.7360126083531,0.019736842105263164
265,967.5334909377461,0.019736842105263164
266,970.3309692671396,0.019736842105263164
267,973.1284475965326,0.019736842105263164
268,975.9259259259261,0.019736842105263164
269,978.7234042553191,0.019736842105263164
270,981.5208825847126,0.019736842105263164
271,984.3183609141056,0.019736842105263164
272,987.1158392434986,0.019736842105263164
273,989.9133175728921,0.019736842105263164
274,992.7107959022851,0.019736842105263164
275,995.5082742316786,0.019736842105263164
276,995.5082742316786,0.02631578947368418
277,998.3057525610716,0.02631578947368418
278,1001.103230890465,0.02631578947368418
279,1003.9007092198581,0.02631578947368418
280,1006.6981875492515,0.02631578947368418
281,1009.4956658786446,0.02631578947368418
282,1012.293144208038,0.02631578947368418
283,1015.090622537431,0.02631578947368418
284,1017.8881008668241,0.02631578947368418
285,1020.6855791962175,0.02631578947368418
286,1023.4830575256105,0.02631578947368418
287,1026.280535855004,0.02631578947368418
288,1029.078014184397,0.02631578947368418
289,1031.8754925137905,0.02631578947368418
290,1034.6729708431835,0.02631578947368418
291,1037.470449172577,0.02631578947368418
292,1040.26792750197,0.02631578947368418
293,1043.0654058313635,0.02631578947368418
294,1045.8628841607565,0.02631578947368418
295,1048.6603624901495,0.02631578947368418
296,1051.457840819543,0.02631578947368418
297,1054.255319148936,0.02631578947368418
298,1057.0527974783295,0.02631578947368418
299,1059.8502758077225,0.02631578947368418
300,1062.647754137116,0.02631578947368418
301,1065.445232466509,0.02631578947368418
302,1068.2427107959024,0.02631578947368418
303,1071.0401891252955,0.02631578947368418
304,1073.837667454689,0.02631578947368418
305,1076.635145784082,0.02631578947368418
306,1079.432624113475,0.02631578947368418
307,1082.2301024428684,0.02631578947368418
308,1085.0275807722614,0.02631578947368418
309,1087.825059101655,0.02631578947368418
310,1090.622537431048,0.02631578947368418
311,1093.4200157604414,0.02631578947368418
312,1096.2174940898344,0.02631578947368418
313,1099.014972419228,0.02631578947368418
314,1101.812450748621,0.02631578947368418
315,1104.6099290780144,0.02631578947368418
316,1107.4074074074074,0.02631578947368418
317,1110.2048857368004,0.02631578947368418
318,1113.0023640661939,0.02631578947368418
319,1115.799842395587,0.02631578947368418
320,1118.5973207249804,0.02631578947368418
321,1121.3947990543734,0.02631578947368418
322,1124.1922773837669,0.02631578947368418
323,1126.9897557131599,0.02631578947368418
324,1129.7872340425533,0.02631578947368418
325,1132.5847123719464,0.02631578947368418
326,1135.3821907013398,0.02631578947368418
327,1138.1796690307328,0.02631578947368418
328,1140.9771473601263,0.02631578947368418
329,1143.7746256895193,0.02631578947368418
330,1146.5721040189123,0.02631578947368418
331,1149.3695823483058,0.02631578947368418
332,1152.1670606776988,0.02631578947368418
333,1154.9645390070923,0.02631578947368418
334,1157.7620173364853,0.02631578947368418
335,1160.5594956658788,0.02631578947368418
336,1163.3569739952718,0.02631578947368418
337,1166.1544523246653,0.02631578947368418
338,1168.9519306540583,0.02631578947368418
339,1171.7494089834518,0.02631578947368418
340,1174.5468873128448,0.02631578947368418
341,1177.3443656422378,0.02631578947368418
342,1180.1418439716313,0.02631578947368418
343,1182.9393223010243,0.02631578947368418
344,1185.7368006304177,0.02631578947368418
345,1188.5342789598108,0.02631578947368418
346,1191.3317572892042,0.02631578947368418
347,1194.1292356185972,0.02631578947368418
348,1196.9267139479907,0.02631578947368418
349,1199.7241922773837,0.02631578947368418
350,1202.5216706067772,0.02631578947368418
351,1205.3191489361702,0.02631578947368418
352,1208.1166272655632,0.02631578947368418
353,1210.9141055949567,0.02631578947368418
354,1213.7115839243497,0.02631578947368418
355,1216.5090622537432,0.02631578947368418
356,1219.3065405831362,0.02631578947368418
357,1219.3065405831362,0.03289473684210531
358,1222.1040189125297,0.03289473684210531
359,1224.9014972419227,0.03289473684210531
360,1227.6989755713162,0.03289473684210531
361,1230.4964539007092,0.03289473684210531
362,1233.2939322301027,0.03289473684210531
363,1236.0914105594957,0.03289473684210531
364,1238.8888888888887,0.03289473684210531
365,1241.6863672182822,0.03289473684210531
366,1244.4838455476752,0.03289473684210531
367,1247.2813238770686,0.03289473684210531
368,1250.0788022064617,0.03289473684210531
369,1252.8762805358551,0.03289473684210531
370,1255.6737588652481,0.03289473684210531
371,1258.4712371946416,0.03289473684210531
372,1261.2687155240346,0.03289473684210531
373,1264.066193853428,0.03289473684210531
374,1264.066193853428,0.03947368421052633
375,1266.8636721828211,0.03947368421052633
376,1269.6611505122141,0.03947368421052633
377,1272.4586288416076,0.03947368421052633
378,1275.2561071710006,0.03947368421052633
379,1278.053585500394,0.03947368421052633
380,1280.851063829787,0.03947368421052633
381,1283.6485421591806,0.03947368421052633
382,1286.4460204885736,0.03947368421052633
383,1289.243498817967,0.046052631578947345
384,1289.243498817967,0.03947368421052633
385,1292.04097714736,0.046052631578947345
386,1294.8384554767536,0.046052631578947345
387,1297.6359338061466,0.046052631578947345
388,1300.4334121355396,0.046052631578947345
389,1303.230890464933,0.046052631578947345
390,1306.028368794326,0.046052631578947345
391,1308.8258471237195,0.03947368421052633
392,1308.8258471237195,0.046052631578947345
393,1311.6233254531126,0.03947368421052633
394,1314.420803782506,0.03947368421052633
395,1317.218282111899,0.03947368421052633
396,1320.0157604412925,0.03947368421052633
397,1322.8132387706855,0.03947368421052633
398,1325.610717100079,0.03947368421052633
399,1328.408195429472,0.03947368421052633
400,1331.205673758865,0.03947368421052633
401,1334.0031520882585,0.03947368421052633
402,1334.0031520882585,0.046052631578947345
403,1336.8006304176515,0.046052631578947345
404,1339.598108747045,0.052631578947368474
405,1339.598108747045,0.046052631578947345
406,1342.395587076438,0.052631578947368474
407,1345.1930654058315,0.052631578947368474
408,1347.9905437352245,0.05921052631578949
409,1347.9905437352245,0.052631578947368474
410,1350.788022064618,0.052631578947368474
411,1350.788022064618,0.05921052631578949
412,1353.585500394011,0.05921052631578949
413,1353.585500394011,0.052631578947368474
414,1356.3829787234044,0.05921052631578949
415,1359.1804570527975,0.05921052631578949
416,1359.1804570527975,0.06578947368421051
417,1361.9779353821905,0.06578947368421051
418,1364.775413711584,0.06578947368421051
419,1364.775413711584,0.07236842105263153
420,1367.572892040977,0.07236842105263153
421,1370.3703703703704,0.08552631578947367
422,1370.3703703703704,0.07894736842105265
423,1370.3703703703704,0.07236842105263153
424,1373.1678486997635,0.08552631578947367
425,1375.965327029157,0.07894736842105265
426,1375.965327029157,0.07236842105263153
427,1375.965327029157,0.05921052631578949
428,1375.965327029157,0.08552631578947367
429,1375.965327029157,0.06578947368421051
430,1378.76280535855,0.05921052631578949
431,1378.76280535855,0.046052631578947345
432,1378.76280535855,0.052631578947368474
433,1381.5602836879434,0.03947368421052633
434,1381.5602836879434,0.046052631578947345
435,1384.3577620173364,0.03947368421052633
436,1384.3577620173364,0.03289473684210531
437,1387.15524034673,0.03289473684210531
438,1389.952718676123,0.03289473684210531
439,1392.750197005516,0.03289473684210531
440,1395.5476753349094,0.03289473684210531
441,1398.3451536643024,0.03289473684210531
442,1401.1426319936959,0.03289473684210531
443,1403.940110323089,0.03289473684210531
444,1406.7375886524824,0.03289473684210531
445,1406.7375886524824,0.03947368421052633
446,1409.5350669818754,0.03947368421052633
447,1412.3325453112689,0.03947368421052633
448,1415.1300236406619,0.03947368421052633
449,1417.9275019700553,0.03947368421052633
450,1417.9275019700553,0.046052631578947345
451,1420.7249802994484,0.052631578947368474
452,1420.7249802994484,0.046052631578947345
453,1423.5224586288418,0.052631578947368474
454,1423.5224586288418,0.05921052631578949
455,1426.3199369582348,0.07236842105263153
456,1426.3199369582348,0.07894736842105265
457,1426.3199369582348,0.06578947368421051
458,1426.3199369582348,0.05921052631578949
459,1429.1174152876279,0.07894736842105265
460,1429.1174152876279,0.08552631578947367
461,1431.9148936170213,0.10526315789473684
