,wavenumbers,absorbance
0,452.797478329393,0.03947368421052633
1,452.797478329393,0.046052631578947345
2,455.5949566587865,0.03947368421052633
3,458.3924349881795,0.03289473684210531
4,458.3924349881795,0.03947368421052633
5,461.189913317573,0.03289473684210531
6,463.987391646966,0.03289473684210531
7,466.78486997635946,0.03947368421052633
8,466.78486997635946,0.03289473684210531
9,469.5823483057525,0.03289473684210531
10,469.5823483057525,0.03947368421052633
11,472.37982663514595,0.03289473684210531
12,475.17730496453896,0.03289473684210531
13,477.97478329393243,0.03289473684210531
14,477.97478329393243,0.02631578947368418
15,480.77226162332545,0.02631578947368418
16,483.56973995271846,0.02631578947368418
17,486.36721828211193,0.02631578947368418
18,489.16469661150495,0.02631578947368418
19,491.9621749408984,0.02631578947368418
20,494.75965327029144,0.02631578947368418
21,494.75965327029144,0.019736842105263164
22,497.5571315996849,0.019736842105263164
23,500.3546099290779,0.019736842105263164
24,503.1520882584714,0.019736842105263164
25,505.9495665878644,0.019736842105263164
26,508.7470449172579,0.019736842105263164
27,511.5445232466509,0.019736842105263164
28,514.3420015760439,0.019736842105263164
29,517.1394799054374,0.019736842105263164
30,519.9369582348304,0.019736842105263164
31,522.7344365642239,0.019736842105263164
32,525.5319148936169,0.019736842105263164
33,528.3293932230104,0.019736842105263164
34,531.1268715524034,0.019736842105263164
35,533.9243498817968,0.019736842105263164
36,533.9243498817968,0.02631578947368418
37,536.7218282111899,0.02631578947368418
38,539.5193065405833,0.019736842105263164
39,539.5193065405833,0.02631578947368418
40,542.3167848699763,0.019736842105263164
41,545.1142631993694,0.019736842105263164
42,547.9117415287628,0.019736842105263164
43,550.7092198581558,0.019736842105263164
44,553.5066981875493,0.02631578947368418
45,553.5066981875493,0.019736842105263164
46,556.3041765169423,0.02631578947368418
47,559.1016548463358,0.02631578947368418
48,561.8991331757288,0.019736842105263164
49,561.8991331757288,0.02631578947368418
50,564.6966115051223,0.019736842105263164
51,567.4940898345153,0.019736842105263164
52,570.2915681639088,0.019736842105263164
53,573.0890464933018,0.019736842105263164
54,575.8865248226948,0.019736842105263164
55,578.6840031520883,0.019736842105263164
56,581.4814814814813,0.019736842105263164
57,584.2789598108748,0.019736842105263164
58,587.0764381402678,0.019736842105263164
59,589.8739164696613,0.019736842105263164
60,592.6713947990543,0.019736842105263164
61,595.4688731284477,0.019736842105263164
62,598.2663514578408,0.019736842105263164
63,601.0638297872342,0.019736842105263164
64,603.8613081166272,0.019736842105263164
65,606.6587864460207,0.019736842105263164
66,609.4562647754137,0.019736842105263164
67,612.2537431048067,0.019736842105263164
68,615.0512214342002,0.019736842105263164
69,617.8486997635932,0.019736842105263164
70,620.6461780929867,0.019736842105263164
71,623.4436564223797,0.019736842105263164
72,626.2411347517732,0.019736842105263164
73,629.0386130811662,0.019736842105263164
74,631.8360914105597,0.019736842105263164
75,634.6335697399527,0.019736842105263164
76,637.4310480693462,0.019736842105263164
77,640.2285263987392,0.019736842105263164
78,643.0260047281322,0.019736842105263164
79,645.8234830575257,0.019736842105263164
80,648.6209613869187,0.019736842105263164
81,651.4184397163122,0.019736842105263164
82,654.2159180457052,0.019736842105263164
83,657.0133963750986,0.019736842105263164
84,659.8108747044917,0.019736842105263164
85,662.6083530338851,0.019736842105263164
86,665.4058313632781,0.019736842105263164
87,668.2033096926716,0.019736842105263164
88,671.0007880220646,0.019736842105263164
89,673.7982663514576,0.019736842105263164
90,676.5957446808511,0.019736842105263164
91,679.3932230102441,0.019736842105263164
92,682.1907013396376,0.019736842105263164
93,684.9881796690306,0.019736842105263164
94,687.7856579984241,0.019736842105263164
95,690.5831363278171,0.019736842105263164
96,690.5831363278171,0.02631578947368418
97,693.3806146572106,0.02631578947368418
98,696.1780929866036,0.02631578947368418
99,696.1780929866036,0.03289473684210531
100,698.9755713159971,0.03289473684210531
101,701.7730496453901,0.03289473684210531
102,701.7730496453901,0.02631578947368418
103,704.5705279747831,0.02631578947368418
104,707.3680063041766,0.02631578947368418
105,707.3680063041766,0.03289473684210531
106,710.1654846335696,0.03289473684210531
107,712.962962962963,0.03947368421052633
108,712.962962962963,0.046052631578947345
109,712.962962962963,0.03289473684210531
110,715.7604412923561,0.046052631578947345
111,715.7604412923561,0.052631578947368474
112,718.5579196217495,0.05921052631578949
113,718.5579196217495,0.052631578947368474
114,721.3553979511425,0.05921052631578949
115,724.152876280536,0.05921052631578949
116,726.950354609929,0.05921052631578949
117,729.7478329393225,0.05921052631578949
118,732.5453112687155,0.05921052631578949
119,735.3427895981085,0.06578947368421051
120,735.3427895981085,0.05921052631578949
121,738.140267927502,0.06578947368421051
122,738.140267927502,0.07236842105263153
123,740.937746256895,0.07236842105263153
124,743.7352245862885,0.07236842105263153
125,746.5327029156815,0.07236842105263153
126,746.5327029156815,0.06578947368421051
127,749.330181245075,0.06578947368421051
128,752.127659574468,0.06578947368421051
129,752.127659574468,0.05921052631578949
130,754.9251379038615,0.06578947368421051
131,754.9251379038615,0.05921052631578949
132,757.7226162332545,0.05921052631578949
133,757.7226162332545,0.06578947368421051
134,760.520094562648,0.06578947368421051
135,763.317572892041,0.05921052631578949
136,763.317572892041,0.06578947368421051
137,766.115051221434,0.052631578947368474
138,766.115051221434,0.05921052631578949
139,768.9125295508275,0.052631578947368474
140,771.7100078802205,0.046052631578947345
141,771.7100078802205,0.052631578947368474
142,774.507486209614,0.046052631578947345
143,774.507486209614,0.052631578947368474
144,777.304964539007,0.052631578947368474
145,780.1024428684004,0.046052631578947345
146,780.1024428684004,0.052631578947368474
147,782.8999211977934,0.046052631578947345
148,785.6973995271869,0.046052631578947345
149,788.4948778565799,0.046052631578947345
150,791.2923561859734,0.046052631578947345
151,794.0898345153664,0.052631578947368474
152,794.0898345153664,0.046052631578947345
153,796.8873128447594,0.052631578947368474
154,796.8873128447594,0.05921052631578949
155,799.6847911741529,0.06578947368421051
156,799.6847911741529,0.05921052631578949
157,802.4822695035459,0.06578947368421051
158,805.2797478329394,0.06578947368421051
159,805.2797478329394,0.07236842105263153
160,808.0772261623324,0.07236842105263153
161,810.8747044917259,0.06578947368421051
162,810.8747044917259,0.07236842105263153
163,813.6721828211189,0.06578947368421051
164,816.4696611505124,0.06578947368421051
165,816.4696611505124,0.05921052631578949
166,819.2671394799054,0.052631578947368474
167,819.2671394799054,0.05921052631578949
168,822.0646178092989,0.052631578947368474
169,822.0646178092989,0.046052631578947345
170,824.8620961386919,0.03947368421052633
171,824.8620961386919,0.046052631578947345
172,827.6595744680849,0.03947368421052633
173,830.4570527974784,0.03947368421052633
174,833.2545311268714,0.03947368421052633
175,836.0520094562648,0.03947368421052633
176,838.8494877856579,0.03947368421052633
177,841.6469661150513,0.03947368421052633
178,841.6469661150513,0.046052631578947345
179,844.4444444444443,0.046052631578947345
180,847.2419227738378,0.046052631578947345
181,850.0394011032308,0.046052631578947345
182,852.8368794326243,0.046052631578947345
183,855.6343577620173,0.046052631578947345
184,858.4318360914103,0.052631578947368474
185,858.4318360914103,0.046052631578947345
186,861.2293144208038,0.052631578947368474
187,864.0267927501968,0.052631578947368474
188,866.8242710795903,0.052631578947368474
189,869.6217494089833,0.052631578947368474
190,872.4192277383768,0.052631578947368474
191,875.2167060677698,0.052631578947368474
192,878.0141843971633,0.052631578947368474
193,878.0141843971633,0.046052631578947345
194,880.8116627265563,0.046052631578947345
195,883.6091410559497,0.046052631578947345
196,886.4066193853428,0.046052631578947345
197,886.4066193853428,0.03947368421052633
198,889.2040977147362,0.03947368421052633
199,892.0015760441293,0.03947368421052633
200,894.7990543735223,0.03947368421052633
201,894.7990543735223,0.03289473684210531
202,897.5965327029157,0.03289473684210531
203,900.3940110323088,0.03289473684210531
204,903.1914893617022,0.03289473684210531
205,905.9889676910952,0.03289473684210531
206,908.7864460204887,0.03289473684210531
207,911.5839243498817,0.03289473684210531
208,914.3814026792752,0.03289473684210531
209,917.1788810086682,0.03289473684210531
210,919.9763593380617,0.03289473684210531
211,922.7738376674547,0.03289473684210531
212,925.5713159968477,0.03289473684210531
213,928.3687943262412,0.03289473684210531
214,931.1662726556342,0.03289473684210531
215,933.9637509850277,0.03289473684210531
216,936.7612293144207,0.03947368421052633
217,936.7612293144207,0.03289473684210531
218,939.5587076438142,0.03947368421052633
219,939.5587076438142,0.03289473684210531
220,942.3561859732072,0.03947368421052633
221,942.3561859732072,0.03289473684210531
222,945.1536643026006,0.03947368421052633
223,945.1536643026006,0.03289473684210531
224,947.9511426319937,0.03947368421052633
225,947.9511426319937,0.03289473684210531
226,950.7486209613871,0.03947368421052633
227,950.7486209613871,0.03289473684210531
228,953.5460992907801,0.03289473684210531
229,953.5460992907801,0.03947368421052633
230,956.3435776201732,0.03947368421052633
231,959.1410559495666,0.03947368421052633
232,961.9385342789597,0.03947368421052633
233,964.7360126083531,0.03947368421052633
234,967.5334909377461,0.03947368421052633
235,970.3309692671396,0.03947368421052633
236,973.1284475965326,0.03289473684210531
237,973.1284475965326,0.03947368421052633
238,975.9259259259261,0.03289473684210531
239,978.7234042553191,0.03289473684210531
240,981.5208825847126,0.03289473684210531
241,981.5208825847126,0.03947368421052633
242,984.3183609141056,0.03289473684210531
243,984.3183609141056,0.03947368421052633
244,987.1158392434986,0.03947368421052633
245,987.1158392434986,0.03289473684210531
246,989.9133175728921,0.03289473684210531
247,989.9133175728921,0.03947368421052633
248,992.7107959022851,0.03947368421052633
249,995.5082742316786,0.03947368421052633
250,998.3057525610716,0.03947368421052633
251,1001.103230890465,0.03947368421052633
252,1003.9007092198581,0.03947368421052633
253,1006.6981875492515,0.03947368421052633
254,1009.4956658786446,0.03947368421052633
255,1012.293144208038,0.03947368421052633
256,1015.090622537431,0.03947368421052633
257,1017.8881008668241,0.03947368421052633
258,1017.8881008668241,0.046052631578947345
259,1020.6855791962175,0.046052631578947345
260,1023.4830575256105,0.046052631578947345
261,1026.280535855004,0.052631578947368474
262,1026.280535855004,0.046052631578947345
263,1029.078014184397,0.052631578947368474
264,1029.078014184397,0.046052631578947345
265,1031.8754925137905,0.046052631578947345
266,1034.6729708431835,0.046052631578947345
267,1037.470449172577,0.03947368421052633
268,1037.470449172577,0.046052631578947345
269,1040.26792750197,0.03947368421052633
270,1043.0654058313635,0.03947368421052633
271,1045.8628841607565,0.03947368421052633
272,1048.6603624901495,0.03947368421052633
273,1051.457840819543,0.03947368421052633
274,1054.255319148936,0.03947368421052633
275,1057.0527974783295,0.03947368421052633
276,1059.8502758077225,0.03947368421052633
277,1062.647754137116,0.03947368421052633
278,1065.445232466509,0.03947368421052633
279,1068.2427107959024,0.03947368421052633
280,1071.0401891252955,0.03947368421052633
281,1073.837667454689,0.03947368421052633
282,1076.635145784082,0.03947368421052633
283,1079.432624113475,0.03947368421052633
284,1082.2301024428684,0.03947368421052633
285,1085.0275807722614,0.03947368421052633
286,1087.825059101655,0.03947368421052633
287,1090.622537431048,0.03947368421052633
288,1093.4200157604414,0.03947368421052633
289,1096.2174940898344,0.03289473684210531
290,1096.2174940898344,0.03947368421052633
291,1099.014972419228,0.03947368421052633
292,1101.812450748621,0.03947368421052633
293,1104.6099290780144,0.03947368421052633
294,1107.4074074074074,0.03947368421052633
295,1110.2048857368004,0.03947368421052633
296,1113.0023640661939,0.03947368421052633
297,1115.799842395587,0.03947368421052633
298,1118.5973207249804,0.03947368421052633
299,1121.3947990543734,0.03947368421052633
300,1124.1922773837669,0.03947368421052633
301,1126.9897557131599,0.03947368421052633
302,1126.9897557131599,0.03289473684210531
303,1129.7872340425533,0.03947368421052633
304,1129.7872340425533,0.03289473684210531
305,1132.5847123719464,0.03947368421052633
306,1135.3821907013398,0.03947368421052633
307,1138.1796690307328,0.03947368421052633
308,1140.9771473601263,0.03947368421052633
309,1143.7746256895193,0.03947368421052633
310,1146.5721040189123,0.046052631578947345
311,1149.3695823483058,0.046052631578947345
312,1152.1670606776988,0.046052631578947345
313,1154.9645390070923,0.046052631578947345
314,1157.7620173364853,0.046052631578947345
315,1160.5594956658788,0.046052631578947345
316,1163.3569739952718,0.046052631578947345
317,1166.1544523246653,0.046052631578947345
318,1168.9519306540583,0.046052631578947345
319,1168.9519306540583,0.03947368421052633
320,1171.7494089834518,0.03947368421052633
321,1174.5468873128448,0.03947368421052633
322,1177.3443656422378,0.03947368421052633
323,1180.1418439716313,0.03947368421052633
324,1182.9393223010243,0.03947368421052633
325,1185.7368006304177,0.03947368421052633
326,1188.5342789598108,0.03947368421052633
327,1191.3317572892042,0.03947368421052633
328,1194.1292356185972,0.03947368421052633
329,1196.9267139479907,0.03947368421052633
330,1199.7241922773837,0.03947368421052633
331,1202.5216706067772,0.03947368421052633
332,1205.3191489361702,0.03947368421052633
333,1208.1166272655632,0.03947368421052633
334,1210.9141055949567,0.03947368421052633
335,1213.7115839243497,0.03947368421052633
336,1216.5090622537432,0.03947368421052633
337,1219.3065405831362,0.03947368421052633
338,1222.1040189125297,0.03947368421052633
339,1224.9014972419227,0.03947368421052633
340,1227.6989755713162,0.03947368421052633
341,1230.4964539007092,0.03947368421052633
342,1233.2939322301027,0.03947368421052633
343,1236.0914105594957,0.046052631578947345
344,1236.0914105594957,0.03947368421052633
345,1238.8888888888887,0.046052631578947345
346,1241.6863672182822,0.046052631578947345
347,1244.4838455476752,0.046052631578947345
348,1247.2813238770686,0.046052631578947345
349,1250.0788022064617,0.046052631578947345
350,1252.8762805358551,0.046052631578947345
351,1255.6737588652481,0.046052631578947345
352,1258.4712371946416,0.046052631578947345
353,1261.2687155240346,0.046052631578947345
354,1264.066193853428,0.046052631578947345
355,1266.8636721828211,0.046052631578947345
356,1269.6611505122141,0.046052631578947345
357,1272.4586288416076,0.046052631578947345
358,1275.2561071710006,0.046052631578947345
359,1278.053585500394,0.046052631578947345
360,1280.851063829787,0.046052631578947345
361,1283.6485421591806,0.052631578947368474
362,1283.6485421591806,0.046052631578947345
363,1286.4460204885736,0.052631578947368474
364,1289.243498817967,0.052631578947368474
365,1292.04097714736,0.05921052631578949
366,1292.04097714736,0.052631578947368474
367,1294.8384554767536,0.05921052631578949
368,1297.6359338061466,0.05921052631578949
369,1300.4334121355396,0.05921052631578949
370,1303.230890464933,0.05921052631578949
371,1306.028368794326,0.05921052631578949
372,1308.8258471237195,0.05921052631578949
373,1311.6233254531126,0.05921052631578949
374,1311.6233254531126,0.06578947368421051
375,1314.420803782506,0.06578947368421051
376,1314.420803782506,0.05921052631578949
377,1317.218282111899,0.05921052631578949
378,1320.0157604412925,0.05921052631578949
379,1322.8132387706855,0.05921052631578949
380,1325.610717100079,0.05921052631578949
381,1328.408195429472,0.05921052631578949
382,1328.408195429472,0.06578947368421051
383,1331.205673758865,0.06578947368421051
384,1334.0031520882585,0.06578947368421051
385,1336.8006304176515,0.07236842105263153
386,1336.8006304176515,0.06578947368421051
387,1339.598108747045,0.07236842105263153
388,1342.395587076438,0.07236842105263153
389,1345.1930654058315,0.07236842105263153
390,1347.9905437352245,0.07236842105263153
391,1350.788022064618,0.07236842105263153
392,1350.788022064618,0.07894736842105265
393,1353.585500394011,0.08552631578947367
394,1353.585500394011,0.07894736842105265
395,1356.3829787234044,0.09868421052631582
396,1356.3829787234044,0.09210526315789469
397,1356.3829787234044,0.08552631578947367
398,1359.1804570527975,0.11842105263157898
399,1359.1804570527975,0.11184210526315785
400,1359.1804570527975,0.13815789473684215
401,1359.1804570527975,0.13157894736842102
402,1359.1804570527975,0.09868421052631582
403,1359.1804570527975,0.125
404,1359.1804570527975,0.10526315789473684
405,1361.9779353821905,0.14473684210526316
406,1361.9779353821905,0.13815789473684215
407,1364.775413711584,0.1578947368421053
408,1364.775413711584,0.15131578947368418
409,1364.775413711584,0.14473684210526316
410,1367.572892040977,0.1842105263157895
411,1367.572892040977,0.17763157894736847
412,1367.572892040977,0.16447368421052633
413,1367.572892040977,0.1578947368421053
414,1367.572892040977,0.19736842105263153
415,1367.572892040977,0.1907894736842105
416,1367.572892040977,0.17105263157894735
417,1370.3703703703704,0.20394736842105265
418,1370.3703703703704,0.23026315789473684
419,1370.3703703703704,0.19736842105263153
420,1370.3703703703704,0.2171052631578947
421,1370.3703703703704,0.23684210526315785
422,1370.3703703703704,0.21052631578947367
423,1370.3703703703704,0.22368421052631582
424,1370.3703703703704,0.256578947368421
425,1370.3703703703704,0.24342105263157898
426,1370.3703703703704,0.25
427,1370.3703703703704,0.26315789473684215
428,1373.1678486997635,0.26315789473684215
429,1373.1678486997635,0.256578947368421
430,1375.965327029157,0.24342105263157898
431,1375.965327029157,0.21052631578947367
432,1375.965327029157,0.1907894736842105
433,1375.965327029157,0.2171052631578947
434,1375.965327029157,0.19736842105263153
435,1375.965327029157,0.256578947368421
436,1375.965327029157,0.22368421052631582
437,1375.965327029157,0.20394736842105265
438,1375.965327029157,0.23684210526315785
439,1375.965327029157,0.25
440,1375.965327029157,0.23026315789473684
441,1378.76280535855,0.16447368421052633
442,1378.76280535855,0.1907894736842105
443,1378.76280535855,0.17105263157894735
444,1378.76280535855,0.1842105263157895
445,1378.76280535855,0.17763157894736847
446,1381.5602836879434,0.13157894736842102
447,1381.5602836879434,0.15131578947368418
448,1381.5602836879434,0.13815789473684215
449,1381.5602836879434,0.16447368421052633
450,1381.5602836879434,0.1578947368421053
451,1381.5602836879434,0.14473684210526316
452,1384.3577620173364,0.07894736842105265
453,1384.3577620173364,0.11184210526315785
454,1384.3577620173364,0.09210526315789469
455,1384.3577620173364,0.09868421052631582
456,1384.3577620173364,0.08552631578947367
457,1384.3577620173364,0.10526315789473684
458,1384.3577620173364,0.11842105263157898
459,1384.3577620173364,0.125
460,1384.3577620173364,0.13157894736842102
461,1387.15524034673,0.07236842105263153
